epoch,Alessandro-cleaned-data_val_dice,Alessandro-cleaned-data_val_loss,Alessandro-cleaned-data_val_precision,Alessandro-cleaned-data_val_recall,Alessandro-cleaned-data_val_sparse_categorical_accuracy,Antoine-cleaned-data_val_dice,Antoine-cleaned-data_val_loss,Antoine-cleaned-data_val_precision,Antoine-cleaned-data_val_recall,Antoine-cleaned-data_val_sparse_categorical_accuracy,Kornum-cleaned-data_v2_val_dice,Kornum-cleaned-data_v2_val_loss,Kornum-cleaned-data_v2_val_precision,Kornum-cleaned-data_v2_val_recall,Kornum-cleaned-data_v2_val_sparse_categorical_accuracy,Maiken-cleaned-data_val_dice,Maiken-cleaned-data_val_loss,Maiken-cleaned-data_val_precision,Maiken-cleaned-data_val_recall,Maiken-cleaned-data_val_sparse_categorical_accuracy,Sebastian-cleaned-data_val_dice,Sebastian-cleaned-data_val_loss,Sebastian-cleaned-data_val_precision,Sebastian-cleaned-data_val_recall,Sebastian-cleaned-data_val_sparse_categorical_accuracy,epoch_minutes,loss,sparse_categorical_accuracy,train_hours,val_dice,val_loss,val_precision,val_recall,val_sparse_categorical_accuracy
0,0.175,1.08,0.2018,0.3334,0.3555,0.2792,1.0363,0.5134,0.3266,0.4252,0.2183,1.0879,0.524,0.3459,0.3626,0.2566,0.9896,0.5058,0.3137,0.5598,0.2117,1.0469,0.4635,0.3311,0.4498,1.1661,1.1067577600479126,0.3765920400619507,0.0195,0.2282,1.0481,0.4417,0.3301,0.4306
1,0.1904,1.0478,0.5216,0.3397,0.3637,0.3607,1.0141,0.5176,0.3914,0.5305,0.2272,1.0589,0.4821,0.3495,0.3552,0.2663,0.9992,0.5251,0.3233,0.585,0.299,1.0287,0.5285,0.3766,0.5114,0.4207,1.073909044265747,0.3915885984897613,0.0266,0.2687,1.0297,0.515,0.3561,0.4692
2,0.3951,1.0112,0.5523,0.4575,0.5695,0.4462,0.9916,0.5224,0.4596,0.6364,0.4197,1.0257,0.5304,0.4594,0.5299,0.3847,1.001,0.5393,0.3857,0.668,0.458,1.0028,0.5535,0.4842,0.659,0.4168,1.052225947380066,0.4510960578918457,0.0336,0.4207,1.0065,0.5396,0.4493,0.6126
3,0.5543,0.9533,0.6241,0.5886,0.808,0.4844,0.9509,0.5222,0.4974,0.6955,0.5597,0.9747,0.5827,0.5699,0.7468,0.4487,0.9854,0.5305,0.4334,0.7124,0.5097,0.9599,0.5715,0.5333,0.7301,0.4225,1.026173710823059,0.5407801866531372,0.0407,0.5114,0.9648,0.5662,0.5245,0.7386
4,0.5861,0.8768,0.6942,0.6162,0.861,0.5073,0.8979,0.5237,0.5187,0.7289,0.5844,0.9072,0.6033,0.5947,0.8222,0.4692,0.9624,0.495,0.46,0.7257,0.5313,0.9072,0.5813,0.555,0.7606,0.4228,0.9940748810768129,0.5790486931800842,0.0478,0.5357,0.9103,0.5795,0.5489,0.7797
5,0.5948,0.794,0.7446,0.6228,0.8754,0.5153,0.8514,0.5239,0.5285,0.7446,0.5911,0.8282,0.6147,0.6022,0.8472,0.4731,0.9327,0.4786,0.4743,0.7348,0.5392,0.8558,0.5308,0.5636,0.7731,0.4068,0.956436812877655,0.5884512066841125,0.0547,0.5427,0.8524,0.5785,0.5583,0.795
6,0.5981,0.7142,0.9136,0.6248,0.8808,0.5215,0.8104,0.5243,0.5355,0.7562,0.5923,0.7489,0.6188,0.6047,0.8571,0.4767,0.9061,0.4808,0.4848,0.7409,0.5449,0.8079,0.5445,0.5692,0.7807,0.4032,0.9165470600128174,0.5909489989280701,0.0615,0.5467,0.7975,0.6164,0.5638,0.8031
7,0.5992,0.6462,0.9146,0.6255,0.8828,0.5231,0.7806,0.5231,0.5389,0.7618,0.5919,0.6772,0.6228,0.6077,0.8648,0.4791,0.8768,0.4995,0.489,0.7448,0.5484,0.7679,0.5564,0.5729,0.7857,0.403,0.8806543350219727,0.595314085483551,0.0684,0.5483,0.7497,0.6233,0.5668,0.808
8,0.5997,0.5921,0.915,0.6258,0.8837,0.5224,0.7624,0.5212,0.5393,0.7622,0.5924,0.618,0.6282,0.6113,0.8716,0.4794,0.8489,0.5303,0.4905,0.7488,0.5498,0.7364,0.5395,0.5745,0.7881,0.4011,0.8498086929321289,0.6010517477989197,0.0752,0.5487,0.7116,0.6268,0.5683,0.8109
9,0.6001,0.5627,0.9154,0.6263,0.8841,0.5207,0.7639,0.521,0.5379,0.7599,0.5952,0.5817,0.6037,0.6157,0.8762,0.4814,0.8341,0.5353,0.4915,0.7519,0.5508,0.7226,0.5416,0.5755,0.7894,0.4024,0.8328115940093994,0.5965151190757751,0.082,0.5496,0.693,0.6234,0.5694,0.8123
10,0.6006,0.5358,0.7073,0.6265,0.8847,0.5213,0.7594,0.5313,0.5381,0.7598,0.5975,0.551,0.6008,0.6183,0.8798,0.4809,0.822,0.5602,0.491,0.751,0.5525,0.7082,0.5427,0.5773,0.7918,0.3969,0.8138152956962585,0.5980792045593262,0.0888,0.5506,0.6753,0.5885,0.5702,0.8134
11,0.6028,0.5169,0.6921,0.6274,0.8846,0.5225,0.7586,0.5671,0.5382,0.7584,0.5994,0.5275,0.5809,0.6208,0.8826,0.4825,0.808,0.6008,0.4919,0.754,0.5536,0.6973,0.6109,0.5782,0.793,0.4031,0.7977363467216492,0.6040802001953125,0.0956,0.5522,0.6617,0.6104,0.5713,0.8145
12,0.6092,0.5011,0.6762,0.6297,0.8841,0.5281,0.7552,0.5875,0.5405,0.7577,0.6016,0.5087,0.6163,0.6228,0.8846,0.4819,0.7981,0.56,0.4919,0.7541,0.5565,0.6886,0.7191,0.58,0.7944,0.3995,0.7893534898757935,0.604964017868042,0.1024,0.5555,0.6503,0.6318,0.573,0.815
13,0.6152,0.4873,0.6693,0.6316,0.8837,0.537,0.7517,0.6098,0.5449,0.758,0.6043,0.492,0.6344,0.6244,0.8869,0.4831,0.7892,0.4782,0.4936,0.753,0.5606,0.6794,0.6862,0.5823,0.7957,0.4012,0.7828902006149292,0.6041101217269897,0.1092,0.56,0.6399,0.6156,0.5754,0.8155
14,0.6353,0.4815,0.6663,0.6409,0.8791,0.5541,0.7494,0.614,0.5543,0.7566,0.6084,0.4844,0.6214,0.6246,0.8846,0.4843,0.7857,0.4992,0.4932,0.7492,0.5667,0.6784,0.629,0.5838,0.7936,0.4019,0.7768282294273376,0.6042078733444214,0.116,0.5698,0.6359,0.606,0.5794,0.8126
15,0.6287,0.4736,0.666,0.6373,0.8807,0.5542,0.7434,0.6218,0.5543,0.7573,0.6087,0.4751,0.6241,0.6259,0.8865,0.4849,0.7776,0.4987,0.4939,0.7497,0.5669,0.6722,0.6327,0.5844,0.7949,0.4056,0.7719598412513733,0.6068472862243652,0.1229,0.5687,0.6284,0.6087,0.5792,0.8138
16,0.6386,0.4685,0.6658,0.6426,0.878,0.5613,0.7473,0.6177,0.5586,0.7548,0.6113,0.468,0.621,0.6253,0.8837,0.4864,0.773,0.4968,0.4931,0.7455,0.5703,0.6711,0.6158,0.5846,0.792,0.4031,0.7691333889961243,0.6082836985588074,0.1297,0.5736,0.6256,0.6034,0.5808,0.8108
17,0.6399,0.4642,0.6654,0.6432,0.8773,0.5647,0.7369,0.6179,0.5611,0.7568,0.6129,0.4641,0.6212,0.6256,0.8825,0.4875,0.7699,0.5033,0.4931,0.7396,0.5742,0.6674,0.6181,0.5862,0.7914,0.412,0.7649197578430176,0.6087625026702881,0.1367,0.5758,0.6205,0.6052,0.5818,0.8095
18,0.6509,0.4633,0.6606,0.6513,0.8703,0.5716,0.736,0.6096,0.5663,0.7541,0.6189,0.4632,0.6235,0.6253,0.8738,0.4976,0.7703,0.5202,0.4974,0.7312,0.5833,0.6696,0.6127,0.5885,0.7845,0.3947,0.7617180347442627,0.6073819994926453,0.1434,0.5845,0.6205,0.6053,0.5858,0.8028
19,0.6422,0.4605,0.6598,0.6445,0.8741,0.5694,0.7332,0.6151,0.5645,0.7555,0.6168,0.4599,0.6222,0.6256,0.8771,0.4977,0.7644,0.5229,0.4977,0.7367,0.5812,0.6663,0.6139,0.5882,0.7873,0.4014,0.7601380944252014,0.6087964177131653,0.1502,0.5815,0.6169,0.6068,0.5841,0.8061
20,0.6409,0.4556,0.6589,0.6433,0.8746,0.5715,0.7307,0.6163,0.5659,0.7553,0.6177,0.4551,0.6224,0.6253,0.8762,0.4997,0.7608,0.5254,0.4988,0.7359,0.5823,0.6644,0.612,0.5886,0.7865,0.4014,0.7619298100471497,0.6078328490257263,0.157,0.5824,0.6133,0.607,0.5844,0.8057
21,0.6524,0.4588,0.6579,0.6533,0.8671,0.5769,0.737,0.6109,0.5707,0.7514,0.6212,0.4569,0.6224,0.6244,0.8655,0.5018,0.7618,0.5259,0.4986,0.7284,0.5868,0.6679,0.6069,0.5885,0.777,0.4132,0.7529441714286804,0.6079465746879578,0.1641,0.5878,0.6165,0.6048,0.5871,0.7979
22,0.6502,0.456,0.6578,0.651,0.8688,0.5774,0.7306,0.6126,0.571,0.7533,0.621,0.4545,0.6222,0.6245,0.8664,0.5021,0.759,0.5256,0.4993,0.7281,0.5866,0.664,0.6061,0.5886,0.7778,0.3959,0.7548643350601196,0.6091874837875366,0.1708,0.5875,0.6128,0.6049,0.5869,0.7989
23,0.6476,0.4536,0.6583,0.6487,0.8708,0.5749,0.7305,0.6122,0.5688,0.7527,0.62,0.452,0.6211,0.6242,0.8673,0.5019,0.7551,0.5272,0.4986,0.73,0.5857,0.6629,0.6059,0.588,0.7779,0.4018,0.7520657181739807,0.6120363473892212,0.1776,0.586,0.6108,0.6049,0.5857,0.7997
24,0.6543,0.453,0.6569,0.6556,0.8646,0.5806,0.7293,0.6098,0.5741,0.7513,0.6222,0.4519,0.6221,0.6235,0.8573,0.507,0.757,0.5307,0.502,0.7236,0.5885,0.665,0.6036,0.5882,0.7696,0.4205,0.7530345916748047,0.6095605492591858,0.1847,0.5905,0.6112,0.6046,0.5887,0.7933
25,0.656,0.4521,0.6569,0.6579,0.863,0.5803,0.7279,0.6076,0.5741,0.7505,0.6232,0.4511,0.6229,0.6238,0.8521,0.5102,0.756,0.5341,0.5042,0.7224,0.588,0.6644,0.6015,0.5873,0.7664,0.4004,0.748298704624176,0.6102527976036072,0.1915,0.5915,0.6103,0.6046,0.5895,0.7909
26,0.6521,0.4478,0.6564,0.6529,0.8665,0.5818,0.7216,0.6107,0.575,0.7534,0.623,0.448,0.6228,0.6236,0.8549,0.5128,0.7541,0.5365,0.5069,0.7226,0.5874,0.6618,0.6005,0.5868,0.767,0.3839,0.7511773705482483,0.6091794967651367,0.1983,0.5914,0.6067,0.6054,0.589,0.7929
27,0.6459,0.4418,0.6561,0.6466,0.871,0.5805,0.7177,0.6136,0.5734,0.7551,0.622,0.4424,0.6223,0.6234,0.8612,0.5103,0.7509,0.5342,0.506,0.7253,0.5879,0.6569,0.6025,0.5885,0.773,0.3987,0.7489075660705566,0.6125171780586243,0.2051,0.5893,0.6019,0.6057,0.5876,0.7971
28,0.6542,0.4518,0.6551,0.6563,0.8623,0.5801,0.7231,0.6069,0.5738,0.7511,0.6237,0.452,0.6232,0.6243,0.8466,0.5147,0.7528,0.5387,0.5074,0.7229,0.5877,0.6631,0.5998,0.5863,0.7623,0.4036,0.7459830045700073,0.6124213933944702,0.2119,0.5921,0.6086,0.6047,0.5896,0.789
29,0.6507,0.446,0.6555,0.6517,0.8664,0.5792,0.7235,0.6089,0.5728,0.7513,0.6238,0.4456,0.6235,0.6244,0.8536,0.5164,0.7489,0.5431,0.5091,0.7264,0.5876,0.6604,0.6008,0.587,0.7669,0.4013,0.7495434880256653,0.6111505627632141,0.2187,0.5915,0.6049,0.6064,0.589,0.7929
30,0.6499,0.4435,0.6544,0.6508,0.8664,0.5802,0.7187,0.6084,0.5737,0.7525,0.6243,0.4438,0.6241,0.6247,0.8523,0.5178,0.7489,0.5431,0.5107,0.7238,0.588,0.658,0.5999,0.5872,0.7664,0.4005,0.7457719445228577,0.6127186417579651,0.2255,0.592,0.6026,0.606,0.5894,0.7923
31,0.6539,0.4439,0.6544,0.6556,0.8621,0.5815,0.7163,0.6045,0.5753,0.7519,0.6247,0.4452,0.6247,0.6251,0.8436,0.5213,0.7514,0.5437,0.5137,0.7199,0.5889,0.6586,0.5986,0.5871,0.7596,0.4064,0.7464359998703003,0.6106797456741333,0.2324,0.5941,0.6031,0.6052,0.5914,0.7874
32,0.6542,0.4419,0.6538,0.6563,0.8611,0.581,0.7207,0.6012,0.5756,0.7492,0.6248,0.4427,0.6252,0.6253,0.8419,0.5236,0.7517,0.5464,0.5155,0.721,0.5887,0.6588,0.5976,0.5868,0.7573,0.4064,0.7473278641700745,0.6100313663482666,0.2393,0.5945,0.6032,0.6048,0.5919,0.7861
33,0.654,0.4409,0.6535,0.6561,0.861,0.5809,0.7201,0.602,0.5753,0.7498,0.625,0.4415,0.6254,0.6256,0.841,0.5226,0.7502,0.5456,0.5145,0.7209,0.5887,0.6584,0.5979,0.5869,0.7582,0.4062,0.7442991137504578,0.6117371320724487,0.2463,0.5942,0.6022,0.6049,0.5917,0.7862
34,0.6531,0.4406,0.6531,0.655,0.8615,0.5812,0.7183,0.6032,0.5754,0.7507,0.6254,0.4411,0.6256,0.626,0.8423,0.5224,0.7484,0.5454,0.5144,0.7202,0.5889,0.6564,0.5983,0.5872,0.7597,0.3951,0.739185631275177,0.6151625514030457,0.253,0.5942,0.601,0.6051,0.5916,0.7869
35,0.651,0.4407,0.6533,0.6522,0.8642,0.5817,0.7161,0.6077,0.5752,0.7523,0.6257,0.442,0.6256,0.6263,0.8444,0.5237,0.7464,0.5481,0.5153,0.7237,0.5882,0.6565,0.5985,0.5867,0.7611,0.4081,0.741817057132721,0.6154518127441406,0.2599,0.5941,0.6003,0.6066,0.5911,0.7891
36,0.6558,0.4443,0.6529,0.6599,0.8568,0.5809,0.7214,0.5995,0.576,0.7474,0.6239,0.4457,0.6252,0.6262,0.8318,0.5294,0.7496,0.552,0.5195,0.7209,0.5888,0.6599,0.5977,0.5866,0.7526,0.4051,0.7486365437507629,0.609809935092926,0.2668,0.5958,0.6042,0.6055,0.5936,0.7819
37,0.6509,0.439,0.6541,0.6518,0.8652,0.5815,0.7123,0.6082,0.5748,0.753,0.626,0.4408,0.626,0.6266,0.8438,0.5229,0.746,0.547,0.515,0.7212,0.5883,0.654,0.5984,0.587,0.7627,0.402,0.7399016618728638,0.6154298782348633,0.2736,0.5939,0.5984,0.6067,0.591,0.7892
38,0.649,0.4347,0.6528,0.6495,0.8657,0.5812,0.7145,0.6076,0.5746,0.7521,0.6264,0.436,0.6267,0.6267,0.8459,0.5235,0.7454,0.5489,0.5156,0.7212,0.5883,0.6519,0.5977,0.5872,0.7639,0.3973,0.7424944043159485,0.6153620481491089,0.2803,0.5937,0.5965,0.6067,0.5907,0.7898
39,0.6551,0.4449,0.6512,0.6604,0.8539,0.5806,0.7169,0.5981,0.5757,0.7474,0.6233,0.4472,0.6257,0.6276,0.8247,0.5355,0.749,0.5549,0.5253,0.7204,0.5896,0.6619,0.5985,0.5872,0.7474,0.4002,0.7422112822532654,0.6109071969985962,0.2871,0.5968,0.604,0.6057,0.5952,0.7788
40,0.6525,0.44,0.6521,0.6546,0.8605,0.5813,0.7155,0.6042,0.5753,0.7504,0.6255,0.4415,0.6265,0.6275,0.8349,0.5274,0.747,0.55,0.5181,0.7198,0.5897,0.6561,0.5988,0.5877,0.757,0.409,0.7416247725486755,0.6128543019294739,0.294,0.5953,0.6,0.6063,0.5926,0.7845
41,0.6521,0.4415,0.6519,0.6542,0.8607,0.5812,0.7166,0.604,0.5752,0.75,0.6254,0.4435,0.6263,0.6275,0.8347,0.5305,0.7463,0.5537,0.5203,0.7216,0.591,0.6579,0.6006,0.5888,0.7563,0.401,0.7411836981773376,0.614224910736084,0.3009,0.596,0.6012,0.6073,0.5932,0.7847
42,0.6532,0.4431,0.6518,0.6561,0.8588,0.5811,0.716,0.6018,0.5756,0.7497,0.625,0.4456,0.6262,0.628,0.8308,0.5321,0.7466,0.5536,0.5218,0.7212,0.591,0.659,0.6004,0.5885,0.7531,0.4055,0.7440391182899475,0.6129321455955505,0.3077,0.5965,0.6021,0.6068,0.594,0.7827
43,0.6489,0.4372,0.6516,0.65,0.8642,0.5807,0.7135,0.6061,0.5744,0.7518,0.6267,0.4392,0.6271,0.628,0.84,0.5259,0.7442,0.5495,0.5168,0.7212,0.5889,0.6528,0.5985,0.5872,0.7605,0.4063,0.7395294904708862,0.6160144209861755,0.3146,0.5942,0.5974,0.6066,0.5913,0.7875
44,0.6525,0.4397,0.651,0.6552,0.8586,0.58,0.7177,0.6006,0.5747,0.7492,0.6258,0.4415,0.6272,0.6287,0.8319,0.5314,0.7458,0.5533,0.5211,0.7196,0.5916,0.6561,0.6007,0.5893,0.7555,0.4015,0.7429357767105103,0.613500714302063,0.3214,0.5963,0.6002,0.6066,0.5938,0.783
45,0.6544,0.442,0.6508,0.6592,0.8543,0.5797,0.7188,0.5971,0.5751,0.7467,0.6242,0.4442,0.627,0.6293,0.8242,0.537,0.7473,0.5573,0.5262,0.7189,0.5912,0.6588,0.5998,0.5888,0.7491,0.404,0.7427480220794678,0.612561047077179,0.3283,0.5973,0.6022,0.6064,0.5957,0.7786
46,0.6522,0.4373,0.6505,0.6549,0.858,0.5812,0.713,0.6007,0.5758,0.7499,0.6258,0.4391,0.6278,0.6293,0.8302,0.5322,0.7462,0.5522,0.5225,0.7159,0.5916,0.6535,0.5997,0.5894,0.7555,0.4062,0.7382767796516418,0.6147475838661194,0.3352,0.5966,0.5978,0.6062,0.5944,0.7819
47,0.6505,0.4385,0.6505,0.6524,0.8607,0.5816,0.7097,0.6046,0.5754,0.7526,0.6268,0.4412,0.6281,0.6301,0.8321,0.5302,0.7454,0.5503,0.5209,0.7159,0.5916,0.653,0.6005,0.5895,0.7582,0.4002,0.7408100366592407,0.6136682629585266,0.342,0.5961,0.5976,0.6068,0.5937,0.7839
48,0.6541,0.4409,0.6511,0.6584,0.8556,0.5798,0.718,0.5988,0.5749,0.7482,0.6255,0.4429,0.6278,0.6303,0.8264,0.5331,0.7457,0.5548,0.5224,0.7186,0.5919,0.656,0.6009,0.5895,0.7541,0.4038,0.7374773621559143,0.6169919967651367,0.3488,0.5969,0.6007,0.6067,0.5951,0.7806
49,0.6539,0.4389,0.651,0.6579,0.8559,0.581,0.7131,0.6005,0.5757,0.75,0.626,0.4408,0.6282,0.6306,0.8276,0.5333,0.7434,0.5548,0.523,0.7172,0.5921,0.6532,0.601,0.5899,0.7567,0.4037,0.7387149333953857,0.6165291666984558,0.3556,0.5973,0.5979,0.6071,0.5954,0.7815
50,0.6514,0.4386,0.6499,0.6542,0.8583,0.5811,0.7097,0.6022,0.5754,0.7512,0.6266,0.4413,0.6286,0.6309,0.8288,0.5335,0.7436,0.5547,0.5234,0.7177,0.5916,0.6526,0.6004,0.5893,0.7567,0.4083,0.7402243614196777,0.6152762770652771,0.3626,0.5968,0.5972,0.6072,0.5946,0.7825
51,0.6522,0.4368,0.6494,0.656,0.8554,0.582,0.7078,0.6018,0.5763,0.752,0.6263,0.4393,0.6291,0.6318,0.8259,0.5337,0.7444,0.5536,0.5243,0.7147,0.5919,0.6501,0.5999,0.5898,0.757,0.3944,0.7363807559013367,0.615330159664154,0.3693,0.5972,0.5957,0.6068,0.5956,0.781
52,0.6539,0.4406,0.6495,0.6601,0.8515,0.5808,0.712,0.5982,0.576,0.7493,0.6245,0.4436,0.6288,0.6326,0.8186,0.539,0.7449,0.5585,0.5285,0.7164,0.593,0.6544,0.6012,0.5906,0.7519,0.401,0.740236759185791,0.6153361201286316,0.3761,0.5982,0.5991,0.6072,0.5976,0.7775
53,0.6524,0.4407,0.65,0.6561,0.8566,0.5796,0.7096,0.6018,0.5739,0.7515,0.6266,0.4435,0.629,0.6326,0.8249,0.534,0.7435,0.5562,0.5234,0.7193,0.5929,0.6525,0.6023,0.5906,0.7579,0.4046,0.7417715787887573,0.6157670617103577,0.3829,0.5971,0.598,0.6079,0.5953,0.782
54,0.6529,0.4408,0.6494,0.6576,0.8541,0.5809,0.7094,0.6004,0.5755,0.7509,0.6257,0.4436,0.6291,0.633,0.8212,0.5384,0.7444,0.5597,0.5275,0.719,0.5935,0.653,0.6024,0.5912,0.7554,0.4014,0.7393014430999756,0.6150887608528137,0.3897,0.5983,0.5982,0.6082,0.597,0.7801
55,0.6541,0.4397,0.6497,0.6603,0.8515,0.5813,0.7083,0.5988,0.5763,0.7505,0.6247,0.4428,0.6294,0.6339,0.817,0.539,0.7451,0.557,0.529,0.7163,0.5936,0.652,0.6017,0.5913,0.7528,0.409,0.7403196692466736,0.616197943687439,0.3967,0.5985,0.5976,0.6073,0.5982,0.7776
56,0.652,0.4355,0.6489,0.6559,0.8547,0.5809,0.7067,0.5988,0.5758,0.7513,0.6259,0.4384,0.6295,0.6325,0.8235,0.5382,0.7435,0.5569,0.5284,0.7149,0.5943,0.6497,0.6023,0.5921,0.7559,0.3978,0.7372399568557739,0.6155874729156494,0.4034,0.5983,0.5948,0.6073,0.5969,0.7801
57,0.6513,0.4353,0.649,0.6545,0.8565,0.5802,0.7053,0.6002,0.5747,0.7522,0.6275,0.4378,0.6303,0.6335,0.8262,0.5356,0.7425,0.5566,0.5257,0.7161,0.5934,0.6481,0.6016,0.5912,0.7582,0.3995,0.7396823763847351,0.6164852380752563,0.4102,0.5976,0.5938,0.6075,0.5959,0.7818
58,0.6505,0.4388,0.6493,0.6531,0.8587,0.5811,0.7046,0.6047,0.575,0.7535,0.6278,0.4421,0.6298,0.6337,0.8265,0.5365,0.7398,0.5597,0.5255,0.7216,0.5926,0.6507,0.6023,0.5903,0.7588,0.4033,0.7367876172065735,0.6202638149261475,0.4171,0.5977,0.5952,0.6092,0.5955,0.7838
59,0.6554,0.439,0.6499,0.6652,0.8464,0.5806,0.7125,0.5947,0.5768,0.7474,0.6242,0.4415,0.6306,0.6363,0.8122,0.5402,0.7454,0.5564,0.5304,0.7129,0.5951,0.652,0.6027,0.5931,0.7498,0.3987,0.7387685775756836,0.6141071915626526,0.4238,0.5991,0.5981,0.6069,0.6004,0.7737
60,0.6536,0.4399,0.6498,0.6587,0.8535,0.5793,0.7118,0.5991,0.5743,0.7498,0.6264,0.4423,0.6301,0.635,0.8199,0.5366,0.7426,0.5582,0.5256,0.7182,0.5943,0.6514,0.6033,0.592,0.7558,0.4009,0.738533616065979,0.6160643100738525,0.4306,0.598,0.5976,0.6081,0.5971,0.7794
61,0.6527,0.4368,0.6494,0.6571,0.8542,0.5793,0.7083,0.5983,0.5743,0.7507,0.6275,0.4393,0.631,0.6352,0.8227,0.5366,0.7422,0.5571,0.5261,0.7166,0.5945,0.6481,0.6028,0.5922,0.7569,0.4066,0.7366949319839478,0.6185520887374878,0.4375,0.5981,0.5949,0.6077,0.597,0.7802
62,0.6491,0.4317,0.6482,0.651,0.8587,0.5798,0.705,0.6023,0.574,0.7527,0.6298,0.4335,0.6319,0.6349,0.8311,0.5323,0.7414,0.556,0.5224,0.715,0.594,0.6431,0.6025,0.5921,0.7637,0.4017,0.735415518283844,0.6190049648284912,0.4443,0.597,0.5909,0.6082,0.5949,0.7842
63,0.6506,0.4379,0.6489,0.6535,0.8577,0.58,0.7042,0.6039,0.5741,0.7537,0.6288,0.4411,0.6309,0.6356,0.8256,0.5336,0.7393,0.5561,0.523,0.7186,0.5936,0.6473,0.6032,0.5914,0.7608,0.4031,0.7376883625984192,0.6188672780990601,0.4512,0.5973,0.594,0.6086,0.5955,0.7833
64,0.65,0.4336,0.6484,0.6526,0.8578,0.5806,0.7039,0.6035,0.5746,0.7535,0.6298,0.4357,0.6319,0.6357,0.8291,0.5331,0.7392,0.5551,0.5232,0.7166,0.5944,0.6445,0.6033,0.5924,0.7622,0.4018,0.7347221374511719,0.6190009713172913,0.4581,0.5976,0.5914,0.6084,0.5957,0.7838
65,0.6529,0.4381,0.6491,0.6581,0.8528,0.5793,0.707,0.5984,0.5743,0.7508,0.6268,0.4409,0.6308,0.636,0.8192,0.5381,0.7408,0.5585,0.5274,0.7164,0.5949,0.6493,0.6035,0.5925,0.7558,0.3993,0.7378557324409485,0.6174149513244629,0.4648,0.5984,0.5952,0.6081,0.5977,0.779
66,0.656,0.444,0.6498,0.6702,0.8412,0.58,0.7154,0.5933,0.5768,0.7458,0.6225,0.4468,0.6306,0.6393,0.8036,0.5443,0.7435,0.5615,0.5338,0.7166,0.5953,0.6562,0.604,0.5935,0.7447,0.4049,0.7379258871078491,0.6155376434326172,0.4717,0.5996,0.6012,0.6078,0.6027,0.7704
67,0.6555,0.4388,0.6502,0.6641,0.8482,0.5794,0.71,0.5958,0.575,0.7489,0.6261,0.4408,0.6313,0.6374,0.8152,0.5395,0.7406,0.5598,0.5286,0.7156,0.5952,0.6489,0.6035,0.5929,0.7538,0.4042,0.7375281453132629,0.6166388988494873,0.4785,0.5991,0.5958,0.6081,0.5996,0.7763
68,0.6556,0.4379,0.6504,0.664,0.8485,0.5797,0.7097,0.5957,0.5753,0.749,0.6263,0.4398,0.6314,0.6374,0.8157,0.541,0.7402,0.5599,0.5303,0.7161,0.5954,0.6503,0.6036,0.5931,0.7523,0.401,0.7342939376831055,0.6162717938423157,0.4854,0.5996,0.5956,0.6082,0.6,0.7763
69,0.6559,0.4394,0.6505,0.6648,0.848,0.5787,0.7083,0.5955,0.5743,0.7494,0.6263,0.4412,0.6315,0.6382,0.8143,0.5395,0.7396,0.5602,0.5284,0.7172,0.5951,0.6484,0.6035,0.5927,0.754,0.4054,0.7362261414527893,0.6189910173416138,0.4922,0.5991,0.5954,0.6082,0.5997,0.7766
70,0.6553,0.4392,0.6499,0.6645,0.8474,0.5789,0.7093,0.5955,0.5746,0.7488,0.6257,0.4411,0.6314,0.6381,0.8131,0.5408,0.74,0.5606,0.5298,0.7169,0.5958,0.6492,0.6041,0.5936,0.7531,0.4078,0.736808717250824,0.6175925135612488,0.4992,0.5993,0.5958,0.6083,0.6001,0.7759
71,0.6547,0.4393,0.6498,0.6619,0.8499,0.5787,0.7078,0.5969,0.574,0.7494,0.6261,0.4415,0.6312,0.6377,0.8145,0.5419,0.7389,0.5627,0.5304,0.72,0.5952,0.6509,0.6041,0.5928,0.7528,0.394,0.7327284216880798,0.621193528175354,0.506,0.5993,0.5957,0.6089,0.5994,0.7773
72,0.6551,0.438,0.6495,0.6663,0.8444,0.5786,0.7092,0.5936,0.5746,0.7478,0.6249,0.4395,0.632,0.6393,0.81,0.5429,0.7402,0.5599,0.5326,0.7139,0.596,0.6493,0.6039,0.5939,0.7502,0.3982,0.7340219616889954,0.6188812851905823,0.5127,0.5995,0.5952,0.6078,0.6013,0.7733
73,0.6545,0.4384,0.6492,0.6636,0.847,0.5786,0.7102,0.5954,0.5744,0.7484,0.6263,0.4396,0.632,0.6388,0.8136,0.5426,0.7388,0.5623,0.5315,0.7179,0.5956,0.6486,0.604,0.5933,0.7524,0.4053,0.7371217012405396,0.618751585483551,0.5196,0.5995,0.5951,0.6086,0.6003,0.7759
74,0.6532,0.4354,0.6489,0.6594,0.8509,0.5792,0.7039,0.5983,0.5741,0.7517,0.6283,0.4367,0.6327,0.6386,0.8193,0.5388,0.7372,0.559,0.5283,0.7154,0.5963,0.6441,0.6046,0.594,0.7573,0.399,0.7343502044677734,0.61887127161026,0.5264,0.5992,0.5915,0.6087,0.5989,0.7789
75,0.6554,0.4393,0.6496,0.6678,0.8431,0.5785,0.7103,0.5935,0.5747,0.7476,0.6253,0.4406,0.6323,0.6406,0.8087,0.543,0.7391,0.5609,0.5322,0.7172,0.5961,0.6496,0.6044,0.594,0.7493,0.4063,0.7319468855857849,0.6199007034301758,0.5333,0.5997,0.5958,0.6081,0.6019,0.7732
76,0.6532,0.4338,0.6492,0.6586,0.852,0.5809,0.6998,0.6013,0.5752,0.7536,0.6291,0.435,0.6332,0.639,0.8209,0.5382,0.7371,0.5572,0.5283,0.7143,0.5968,0.6418,0.6048,0.5945,0.7586,0.4053,0.7385468482971191,0.6169600486755371,0.5401,0.5996,0.5895,0.6091,0.5991,0.7799
77,0.655,0.4393,0.6495,0.665,0.8459,0.5803,0.7046,0.5972,0.5756,0.751,0.6259,0.4416,0.6319,0.6396,0.8113,0.5424,0.7365,0.5598,0.532,0.7164,0.5959,0.6483,0.6046,0.5936,0.7514,0.4058,0.7339068651199341,0.6194179058074951,0.547,0.5999,0.5941,0.6086,0.6012,0.7752
78,0.6568,0.4422,0.6505,0.6743,0.8381,0.5799,0.7116,0.5932,0.5766,0.7466,0.6231,0.4437,0.6322,0.6428,0.8014,0.544,0.7385,0.561,0.5336,0.7161,0.5959,0.6517,0.6046,0.5941,0.7454,0.4031,0.7316510677337646,0.6187635660171509,0.5539,0.5999,0.5975,0.6083,0.6043,0.7695
79,0.6563,0.4403,0.6502,0.6712,0.8406,0.5783,0.7107,0.5926,0.5748,0.7472,0.6243,0.4416,0.6323,0.6416,0.8055,0.5446,0.7379,0.5628,0.5337,0.7172,0.5958,0.6495,0.6042,0.5938,0.7483,0.4004,0.7331175208091736,0.6192503571510315,0.5607,0.5999,0.596,0.6084,0.603,0.7718
80,0.6548,0.437,0.6493,0.6662,0.8439,0.5796,0.7051,0.5958,0.5752,0.7501,0.6258,0.4385,0.6329,0.6411,0.8097,0.5429,0.7371,0.5597,0.5328,0.7138,0.5967,0.6454,0.6046,0.5946,0.7521,0.4017,0.7345505952835083,0.6173012256622314,0.5675,0.6,0.5926,0.6085,0.602,0.7739
81,0.6566,0.4426,0.6506,0.6764,0.8359,0.5799,0.7127,0.5921,0.5772,0.7451,0.621,0.4446,0.632,0.6436,0.7964,0.5456,0.7394,0.5609,0.536,0.7145,0.5951,0.6536,0.6039,0.5938,0.7405,0.398,0.731945276260376,0.6192682981491089,0.5742,0.5996,0.5986,0.6079,0.6054,0.7665
82,0.6537,0.433,0.6489,0.6616,0.8479,0.5799,0.7023,0.598,0.5749,0.7516,0.6276,0.4338,0.6333,0.6399,0.8159,0.5402,0.7361,0.5576,0.5303,0.7116,0.5976,0.6428,0.6052,0.5953,0.7554,0.407,0.7331293821334839,0.6193940043449402,0.5812,0.5998,0.5896,0.6086,0.6004,0.7765
83,0.6551,0.4372,0.6496,0.6654,0.8455,0.5795,0.7034,0.5976,0.5746,0.7508,0.6266,0.4385,0.633,0.6414,0.8108,0.5426,0.7355,0.5607,0.532,0.715,0.5962,0.6459,0.6046,0.5939,0.7525,0.397,0.7306208610534668,0.6215087175369263,0.5879,0.6,0.5921,0.6091,0.6015,0.7749
84,0.6544,0.4348,0.6493,0.6629,0.8474,0.5801,0.704,0.5982,0.5752,0.7512,0.6279,0.4357,0.6332,0.6402,0.8158,0.543,0.7343,0.5618,0.5323,0.7154,0.5971,0.6445,0.6054,0.5948,0.7541,0.4032,0.7327675223350525,0.6192962527275085,0.5947,0.6005,0.5907,0.6096,0.6011,0.7768
85,0.6563,0.4393,0.6503,0.6722,0.8395,0.5795,0.7102,0.5931,0.5761,0.747,0.6243,0.4405,0.6328,0.6427,0.8044,0.5433,0.737,0.5598,0.5331,0.7132,0.5959,0.6484,0.6042,0.594,0.7461,0.3987,0.7325616478919983,0.6195216774940491,0.6015,0.5999,0.5951,0.608,0.6036,0.77
86,0.656,0.4386,0.6503,0.6669,0.8453,0.58,0.7046,0.5984,0.5751,0.751,0.627,0.4402,0.633,0.6418,0.8111,0.5429,0.7341,0.5622,0.5318,0.716,0.5968,0.6473,0.6056,0.5944,0.7518,0.4051,0.7349662780761719,0.6195855140686035,0.6084,0.6005,0.593,0.6099,0.602,0.775
87,0.6574,0.4425,0.651,0.6724,0.8411,0.5801,0.707,0.5959,0.576,0.7489,0.6248,0.4448,0.6324,0.6431,0.8042,0.5447,0.7344,0.5634,0.5337,0.7186,0.596,0.6514,0.6054,0.594,0.7462,0.4031,0.7334954738616943,0.6193042397499084,0.6152,0.6006,0.596,0.6096,0.6038,0.7718
88,0.6568,0.4366,0.6508,0.6698,0.8429,0.5794,0.708,0.5959,0.5752,0.7486,0.6268,0.437,0.6337,0.6424,0.8105,0.5428,0.7348,0.5623,0.5318,0.716,0.5977,0.6447,0.6057,0.5955,0.7521,0.3988,0.7320432066917419,0.620315670967102,0.622,0.6007,0.5922,0.6097,0.6029,0.774
89,0.6571,0.4347,0.6512,0.6717,0.8412,0.5797,0.7081,0.5943,0.5758,0.7482,0.6267,0.4342,0.634,0.6423,0.8108,0.5427,0.7347,0.561,0.5321,0.7126,0.5978,0.6436,0.6053,0.5957,0.7517,0.4042,0.7295926809310913,0.6211535930633545,0.6288,0.6008,0.5911,0.6092,0.6035,0.7729
90,0.6565,0.4382,0.6506,0.6684,0.8443,0.5806,0.7061,0.599,0.5758,0.7506,0.6277,0.4389,0.6336,0.6427,0.8118,0.5423,0.7321,0.5633,0.5307,0.719,0.5978,0.646,0.6067,0.5955,0.7524,0.4006,0.7317749857902527,0.6221311688423157,0.6356,0.601,0.5923,0.6106,0.6026,0.7756
91,0.6566,0.4332,0.651,0.6671,0.8457,0.581,0.7006,0.5997,0.5758,0.753,0.6292,0.4328,0.6348,0.6427,0.8161,0.5398,0.7331,0.5596,0.5294,0.7133,0.5987,0.6398,0.6064,0.5964,0.7573,0.4091,0.7297267317771912,0.6218059659004211,0.6426,0.6011,0.5879,0.6103,0.6023,0.7771
92,0.6569,0.4381,0.6508,0.6712,0.8415,0.5825,0.7018,0.6001,0.5774,0.7526,0.6264,0.4388,0.634,0.6441,0.8074,0.5421,0.7342,0.56,0.5317,0.7141,0.5981,0.6438,0.6062,0.596,0.7526,0.4028,0.730919599533081,0.6210299134254456,0.6494,0.6012,0.5913,0.6102,0.6041,0.7736
93,0.6582,0.4414,0.6522,0.6818,0.8335,0.581,0.7112,0.594,0.5778,0.7469,0.6233,0.4413,0.6337,0.6461,0.7991,0.5458,0.7356,0.5631,0.5352,0.714,0.5979,0.6468,0.606,0.5963,0.7465,0.4,0.7313132882118225,0.6205371618270874,0.6562,0.6012,0.5953,0.6098,0.6074,0.768
94,0.6567,0.4362,0.6509,0.6729,0.8392,0.5821,0.7006,0.5975,0.5775,0.7517,0.6256,0.4363,0.6345,0.6447,0.8058,0.5442,0.734,0.5597,0.5346,0.7101,0.5981,0.6428,0.6054,0.5962,0.7506,0.3995,0.7359680533409119,0.6164712905883789,0.663,0.6013,0.59,0.6096,0.6052,0.7715
95,0.6554,0.4337,0.65,0.6665,0.8442,0.582,0.7021,0.6,0.5769,0.7522,0.6284,0.4332,0.6348,0.6431,0.8138,0.5436,0.7318,0.5631,0.5327,0.7146,0.5992,0.6415,0.6068,0.597,0.7554,0.4003,0.734775185585022,0.6185840368270874,0.6698,0.6017,0.5885,0.6109,0.6032,0.776
96,0.6573,0.4412,0.6514,0.6784,0.8352,0.5802,0.7103,0.5941,0.5768,0.7468,0.6231,0.4412,0.6336,0.6462,0.7983,0.55,0.7346,0.5684,0.5389,0.7181,0.5971,0.6498,0.6057,0.5956,0.7439,0.3976,0.7289009690284729,0.6187157034873962,0.6766,0.6015,0.5954,0.6106,0.6072,0.7685
97,0.655,0.4303,0.6509,0.6607,0.8517,0.5804,0.6983,0.6047,0.5744,0.7554,0.6321,0.4291,0.6354,0.6416,0.825,0.5395,0.7296,0.5632,0.5286,0.7195,0.5986,0.6372,0.607,0.5963,0.7629,0.4034,0.7318512797355652,0.6225740313529968,0.6834,0.6011,0.5849,0.6122,0.6003,0.7829
98,0.6585,0.4401,0.6523,0.6785,0.8369,0.5815,0.7068,0.5967,0.5774,0.7493,0.6247,0.4405,0.6342,0.6465,0.8013,0.545,0.7334,0.5624,0.5345,0.7149,0.5977,0.6467,0.6061,0.5961,0.7465,0.4058,0.7321086525917053,0.619595468044281,0.6903,0.6015,0.5935,0.6103,0.6066,0.7698
99,0.6579,0.4364,0.6519,0.6746,0.8396,0.5814,0.7067,0.5973,0.5771,0.7493,0.6269,0.4364,0.6353,0.6463,0.8067,0.5465,0.7329,0.5648,0.5356,0.7155,0.5982,0.6444,0.6061,0.5963,0.7493,0.4003,0.7312321662902832,0.6199566125869751,0.6971,0.6022,0.5914,0.6111,0.606,0.7721
100,0.6576,0.4359,0.6516,0.6707,0.8434,0.5817,0.7022,0.6007,0.5765,0.7523,0.6283,0.4363,0.6348,0.6446,0.8113,0.543,0.7302,0.5633,0.5318,0.718,0.5985,0.6421,0.6068,0.5963,0.7537,0.4071,0.7305099964141846,0.6207944750785828,0.704,0.6018,0.5893,0.6114,0.604,0.7757
101,0.657,0.434,0.6513,0.668,0.8452,0.582,0.7007,0.6024,0.5765,0.7535,0.6292,0.4338,0.6352,0.6439,0.8147,0.5421,0.7302,0.5636,0.5309,0.7192,0.5994,0.6399,0.6075,0.5972,0.7576,0.3948,0.7337420582771301,0.61940598487854,0.7107,0.6019,0.5877,0.612,0.6033,0.778
102,0.6591,0.4401,0.6526,0.6763,0.8399,0.5807,0.7059,0.5987,0.5761,0.75,0.6263,0.4407,0.6345,0.6468,0.8042,0.5472,0.7313,0.5692,0.535,0.7203,0.5982,0.646,0.6069,0.5961,0.7501,0.4025,0.7296714782714844,0.6222348809242249,0.7176,0.6023,0.5928,0.6124,0.6061,0.7729
103,0.6584,0.4365,0.6524,0.6776,0.8375,0.5807,0.7074,0.5962,0.5765,0.7487,0.6269,0.4359,0.6356,0.647,0.8058,0.547,0.7324,0.5671,0.5355,0.7166,0.5991,0.6425,0.6066,0.5972,0.7507,0.3935,0.7285524010658264,0.6224044561386108,0.7243,0.6024,0.5909,0.6116,0.6068,0.7719
104,0.659,0.4374,0.6527,0.6773,0.8388,0.5821,0.7042,0.5992,0.5773,0.7508,0.627,0.437,0.6352,0.6468,0.8062,0.5479,0.7297,0.5689,0.5361,0.7188,0.5989,0.6436,0.6069,0.5969,0.7515,0.3995,0.728998064994812,0.6221710443496704,0.7311,0.603,0.5904,0.6126,0.6069,0.7732
105,0.6588,0.435,0.6526,0.676,0.8397,0.5811,0.7051,0.5987,0.5763,0.7501,0.6276,0.4337,0.6354,0.6457,0.8089,0.5438,0.7295,0.566,0.5322,0.7172,0.6,0.6406,0.6076,0.5979,0.7553,0.4056,0.7262488603591919,0.6233481168746948,0.738,0.6023,0.5888,0.6121,0.6056,0.7742
106,0.6586,0.4357,0.6523,0.6741,0.8411,0.5822,0.7032,0.6006,0.5772,0.7509,0.6273,0.4352,0.635,0.6453,0.8086,0.5483,0.728,0.5708,0.536,0.7207,0.5991,0.6432,0.6074,0.597,0.7527,0.4016,0.7297688126564026,0.622153103351593,0.7448,0.6031,0.5891,0.6132,0.6059,0.7748
107,0.6592,0.4354,0.6529,0.6755,0.8408,0.582,0.7044,0.6007,0.5769,0.7514,0.6278,0.4343,0.6353,0.6457,0.8093,0.5442,0.729,0.5658,0.5326,0.7197,0.6,0.6411,0.608,0.5979,0.7546,0.4009,0.7281230092048645,0.6229192018508911,0.7516,0.6026,0.5888,0.6125,0.6057,0.7752
108,0.6589,0.4374,0.6526,0.6776,0.8383,0.5824,0.703,0.6,0.5775,0.7513,0.6263,0.4372,0.6352,0.6473,0.8042,0.5478,0.7299,0.5677,0.5363,0.7178,0.5995,0.6433,0.6076,0.5976,0.7504,0.4045,0.7304497361183167,0.621213436126709,0.7584,0.603,0.5902,0.6126,0.6073,0.7724
109,0.6585,0.4348,0.6525,0.6699,0.8458,0.5811,0.6997,0.6041,0.5752,0.754,0.6299,0.434,0.6353,0.6445,0.8152,0.5427,0.727,0.5672,0.5307,0.7236,0.5995,0.6395,0.6082,0.5971,0.759,0.4012,0.729865312576294,0.6229810118675232,0.7653,0.6023,0.587,0.6135,0.6035,0.7795
110,0.6583,0.432,0.653,0.6665,0.8498,0.5799,0.6989,0.6064,0.5738,0.755,0.6328,0.4305,0.6362,0.6439,0.8233,0.5423,0.725,0.5715,0.5299,0.726,0.5989,0.6366,0.608,0.5965,0.7636,0.3982,0.7284144759178162,0.622711718082428,0.7721,0.6024,0.5846,0.615,0.6021,0.7835
111,0.6589,0.4352,0.6528,0.6707,0.8456,0.5802,0.7021,0.6025,0.5747,0.7524,0.6296,0.4344,0.6354,0.6449,0.814,0.5451,0.7267,0.5703,0.5325,0.7244,0.6002,0.6416,0.609,0.5979,0.7566,0.4006,0.7313480973243713,0.6223106980323792,0.7789,0.6028,0.588,0.614,0.6041,0.7786
112,0.6589,0.4348,0.6527,0.6736,0.8422,0.5823,0.699,0.6024,0.5768,0.7531,0.6281,0.4339,0.6356,0.6461,0.8096,0.5457,0.7282,0.5676,0.534,0.7197,0.5999,0.6405,0.6077,0.5977,0.7547,0.3998,0.7290574312210083,0.6196354031562805,0.7857,0.603,0.5873,0.6132,0.6056,0.7759
113,0.6604,0.4373,0.6538,0.6778,0.8405,0.5818,0.7011,0.6008,0.5766,0.7521,0.6273,0.437,0.6353,0.6468,0.8068,0.5478,0.7279,0.5699,0.5357,0.7208,0.5994,0.6428,0.6076,0.5975,0.7512,0.3995,0.7315355539321899,0.6210518479347229,0.7924,0.6033,0.5892,0.6135,0.6069,0.7743
114,0.6603,0.4354,0.6539,0.6781,0.8399,0.5817,0.7024,0.5995,0.5767,0.7512,0.6273,0.4346,0.6355,0.6464,0.8076,0.547,0.7285,0.5679,0.5354,0.7184,0.6005,0.6414,0.6081,0.5988,0.7513,0.3991,0.7298439145088196,0.6225441098213196,0.7992,0.6034,0.5885,0.613,0.6071,0.7737
115,0.659,0.4414,0.654,0.6904,0.828,0.5804,0.7125,0.5925,0.5776,0.745,0.621,0.441,0.6345,0.6497,0.7921,0.5545,0.7323,0.5732,0.5433,0.7167,0.5981,0.6491,0.6065,0.5979,0.7383,0.4031,0.7312661409378052,0.6206747889518738,0.8061,0.6026,0.5953,0.6121,0.6118,0.764
116,0.66,0.4356,0.6538,0.6794,0.8382,0.5811,0.7037,0.5983,0.5764,0.7505,0.6267,0.4342,0.6357,0.6472,0.8058,0.548,0.7287,0.5699,0.536,0.7199,0.6005,0.6422,0.6081,0.5989,0.7505,0.4046,0.7302583456039429,0.6216583251953125,0.8129,0.6033,0.5889,0.6132,0.6076,0.773
117,0.6598,0.4403,0.6535,0.6824,0.8354,0.5816,0.705,0.5983,0.577,0.7498,0.6244,0.4403,0.6351,0.6493,0.7983,0.552,0.7294,0.5726,0.5401,0.7197,0.5986,0.6471,0.607,0.5973,0.7444,0.4088,0.7320358753204346,0.6206867694854736,0.8199,0.6033,0.5924,0.6133,0.6092,0.7695
118,0.6594,0.4337,0.6533,0.6777,0.8386,0.5822,0.7007,0.6,0.5771,0.752,0.6272,0.4321,0.6364,0.6481,0.8061,0.5463,0.7291,0.5661,0.5351,0.7161,0.6005,0.6396,0.6075,0.5989,0.7515,0.4028,0.724981427192688,0.6249760389328003,0.8267,0.6031,0.587,0.6127,0.6074,0.7729
119,0.66,0.4372,0.6538,0.6811,0.8368,0.5815,0.7035,0.5985,0.5769,0.7502,0.6257,0.4365,0.636,0.6493,0.8015,0.5505,0.7284,0.5712,0.5386,0.7184,0.5994,0.6438,0.6072,0.598,0.7469,0.3971,0.7310680747032166,0.6228134632110596,0.8334,0.6034,0.5899,0.6133,0.6088,0.7708
120,0.6597,0.4305,0.6538,0.6712,0.8458,0.5806,0.6983,0.6032,0.5748,0.7542,0.6307,0.429,0.6365,0.6455,0.8167,0.5442,0.7256,0.5679,0.5325,0.7216,0.6019,0.6367,0.6096,0.5997,0.7588,0.3998,0.7286461591720581,0.6241261959075928,0.8402,0.6034,0.584,0.6142,0.6047,0.7794
121,0.6605,0.4368,0.6542,0.6823,0.8364,0.5816,0.7044,0.5987,0.5769,0.7504,0.6256,0.4361,0.6359,0.6491,0.8017,0.5487,0.7283,0.57,0.5368,0.7187,0.6004,0.6426,0.6081,0.599,0.7484,0.3999,0.7292901873588562,0.6206468939781189,0.847,0.6034,0.5896,0.6134,0.6088,0.7711
122,0.6605,0.4374,0.6539,0.6795,0.8389,0.5807,0.7033,0.5999,0.5757,0.7516,0.6267,0.4369,0.6357,0.6486,0.804,0.5475,0.7272,0.5701,0.5352,0.7197,0.6005,0.6427,0.6087,0.5987,0.7502,0.4065,0.7245752215385437,0.6248883008956909,0.8539,0.6032,0.5895,0.6137,0.6075,0.7729
123,0.6604,0.4379,0.6543,0.6841,0.8349,0.5811,0.7053,0.5976,0.5766,0.7501,0.6252,0.437,0.6363,0.6509,0.799,0.5487,0.7299,0.5691,0.537,0.7182,0.5999,0.6428,0.6075,0.5987,0.7467,0.3975,0.7320948839187622,0.6179955005645752,0.8607,0.6031,0.5906,0.613,0.6095,0.7698
124,0.6599,0.4378,0.6541,0.685,0.8334,0.5809,0.7049,0.5964,0.5766,0.7496,0.6242,0.4373,0.636,0.6509,0.7972,0.5521,0.7296,0.571,0.5408,0.7171,0.5987,0.6441,0.6064,0.5977,0.7432,0.4036,0.7265660166740417,0.6225939989089966,0.8675,0.6032,0.5907,0.6128,0.6102,0.7681
125,0.6595,0.4395,0.6539,0.6874,0.8309,0.5813,0.7039,0.5964,0.577,0.7503,0.6231,0.4394,0.6359,0.6524,0.7938,0.5531,0.729,0.5717,0.5418,0.7164,0.5986,0.6453,0.6068,0.5979,0.7416,0.4067,0.7247850894927979,0.6238149404525757,0.8744,0.6031,0.5914,0.6129,0.6113,0.7666
126,0.6608,0.4363,0.6544,0.6814,0.8377,0.5806,0.7028,0.5988,0.5757,0.7507,0.6269,0.4352,0.6364,0.6497,0.8033,0.5493,0.7266,0.572,0.5368,0.7197,0.6,0.6427,0.6079,0.5985,0.7478,0.3995,0.7293311357498169,0.6231785416603088,0.8812,0.6035,0.5887,0.6139,0.6084,0.7718
127,0.6607,0.4332,0.6543,0.6778,0.8407,0.5808,0.6998,0.6001,0.5755,0.7527,0.6281,0.4319,0.6365,0.6482,0.8076,0.5471,0.7257,0.5691,0.5352,0.7194,0.6014,0.6396,0.609,0.5997,0.7522,0.401,0.7262015342712402,0.6220793128013611,0.888,0.6036,0.586,0.6138,0.6073,0.7745
128,0.6606,0.4383,0.6542,0.6832,0.8359,0.5813,0.702,0.5991,0.5764,0.7508,0.6254,0.4381,0.6361,0.651,0.799,0.5524,0.7266,0.574,0.54,0.7201,0.5994,0.6451,0.6077,0.5981,0.7449,0.4058,0.730786919593811,0.6214368939399719,0.8949,0.6038,0.59,0.6142,0.6097,0.7701
129,0.6618,0.4374,0.655,0.6809,0.8398,0.5802,0.7033,0.6005,0.5751,0.7516,0.6276,0.4366,0.6359,0.6488,0.8056,0.5489,0.725,0.5741,0.5357,0.7235,0.6014,0.6433,0.6099,0.5996,0.7506,0.4022,0.7308088541030884,0.6217261552810669,0.9017,0.604,0.5891,0.6151,0.608,0.7742
130,0.6592,0.4391,0.654,0.6882,0.8299,0.5816,0.7037,0.5958,0.5776,0.7489,0.6222,0.4386,0.6358,0.6521,0.7926,0.5547,0.7281,0.5742,0.5431,0.7173,0.5991,0.6456,0.6071,0.5987,0.7407,0.4019,0.7358440160751343,0.6166129112243652,0.9086,0.6034,0.591,0.6134,0.6119,0.7659
131,0.6594,0.4392,0.6544,0.6906,0.8285,0.5807,0.7072,0.5949,0.5768,0.7481,0.6228,0.438,0.6363,0.6528,0.7933,0.5532,0.729,0.5739,0.5412,0.717,0.5993,0.6436,0.6071,0.5987,0.7423,0.4023,0.7325855493545532,0.6197291612625122,0.9154,0.6031,0.5914,0.6133,0.612,0.7658
132,0.6588,0.4388,0.6538,0.6886,0.829,0.5827,0.7024,0.5973,0.5784,0.7501,0.6217,0.4386,0.6359,0.6528,0.7912,0.553,0.728,0.5712,0.5419,0.7157,0.5984,0.6449,0.6065,0.598,0.7401,0.4048,0.7238105535507202,0.6239945292472839,0.9223,0.6029,0.5905,0.6129,0.6119,0.7652
133,0.6609,0.4361,0.6546,0.6833,0.8361,0.5811,0.7033,0.5982,0.5764,0.7503,0.6256,0.4354,0.6365,0.6509,0.8001,0.5523,0.7268,0.5732,0.5402,0.7196,0.5993,0.6433,0.6073,0.5982,0.7447,0.3991,0.725877046585083,0.6229550838470459,0.9291,0.6038,0.589,0.614,0.6098,0.7702
134,0.661,0.4328,0.655,0.6826,0.8368,0.5814,0.7017,0.5986,0.5765,0.7514,0.6267,0.4314,0.6372,0.6505,0.8032,0.5485,0.7274,0.5679,0.5373,0.7176,0.6014,0.6387,0.6083,0.6003,0.7487,0.3998,0.7279642224311829,0.6220114827156067,0.9359,0.6038,0.5864,0.6134,0.6094,0.7715
135,0.6612,0.4347,0.655,0.684,0.8361,0.5805,0.7047,0.5981,0.5758,0.7503,0.6269,0.433,0.6372,0.6513,0.8024,0.549,0.7265,0.5713,0.5368,0.7204,0.6009,0.6406,0.6084,0.5995,0.7485,0.4008,0.726009726524353,0.6240463852882385,0.9427,0.6037,0.5879,0.614,0.6095,0.7715
136,0.6614,0.4361,0.6548,0.6822,0.8378,0.5805,0.7031,0.5997,0.5755,0.7515,0.627,0.4353,0.6365,0.6505,0.8028,0.5512,0.7248,0.5738,0.5387,0.7217,0.6003,0.643,0.6086,0.5989,0.7471,0.4029,0.7286983728408813,0.6219196915626526,0.9495,0.6041,0.5885,0.6147,0.6092,0.7722
137,0.6609,0.4343,0.6551,0.6857,0.8344,0.5815,0.7027,0.5977,0.577,0.7501,0.6255,0.4329,0.6372,0.6522,0.799,0.5521,0.7263,0.5717,0.5404,0.719,0.5996,0.6412,0.6072,0.5987,0.7444,0.3994,0.7242658138275146,0.6239665746688843,0.9563,0.6039,0.5875,0.6138,0.6108,0.7694
138,0.6599,0.4374,0.6546,0.689,0.8303,0.5813,0.7066,0.5961,0.5773,0.7483,0.6233,0.4362,0.6366,0.6532,0.7937,0.5511,0.7278,0.5708,0.5396,0.7176,0.5997,0.6432,0.6077,0.5993,0.7415,0.398,0.7303042411804199,0.6213710308074951,0.963,0.6031,0.5902,0.6132,0.6117,0.7663
139,0.6615,0.4348,0.6553,0.6844,0.8362,0.5806,0.7013,0.5992,0.5756,0.7518,0.6269,0.4333,0.6377,0.6528,0.8011,0.5478,0.7266,0.5685,0.5361,0.7181,0.6018,0.6388,0.6092,0.6005,0.749,0.3999,0.7286014556884766,0.6222967505455017,0.9698,0.6037,0.587,0.614,0.6099,0.7712
140,0.6623,0.4354,0.6558,0.6854,0.8366,0.5803,0.7053,0.5987,0.5755,0.7504,0.6273,0.4338,0.6372,0.6517,0.8025,0.5498,0.725,0.5728,0.5373,0.7218,0.6011,0.6418,0.609,0.5999,0.7466,0.4038,0.7243782877922058,0.6251376271247864,0.9767,0.6042,0.5883,0.6147,0.61,0.7716
141,0.662,0.4348,0.6552,0.6776,0.8431,0.5795,0.7008,0.6031,0.5739,0.7535,0.6301,0.4338,0.637,0.6496,0.81,0.5484,0.7223,0.5751,0.535,0.7266,0.6017,0.6397,0.6102,0.5996,0.7536,0.3971,0.7261639833450317,0.6249680519104004,0.9835,0.6043,0.5863,0.6161,0.6071,0.7774
142,0.6619,0.4303,0.6555,0.6786,0.8417,0.5806,0.699,0.6011,0.5752,0.7538,0.6296,0.4286,0.6376,0.6493,0.8102,0.5506,0.7234,0.5738,0.5383,0.7229,0.602,0.6367,0.6091,0.6003,0.7526,0.4026,0.7273802161216736,0.6228992342948914,0.9903,0.6049,0.5836,0.6154,0.6083,0.7762
143,0.6625,0.4355,0.656,0.6864,0.8361,0.579,0.7075,0.5971,0.5745,0.7492,0.6276,0.4335,0.6373,0.6518,0.8031,0.5498,0.7248,0.5751,0.5366,0.7235,0.6012,0.6402,0.609,0.5997,0.7488,0.4,0.7266438007354736,0.62220299243927,0.9971,0.604,0.5883,0.6149,0.6098,0.7721
144,0.6616,0.4375,0.6552,0.6865,0.8345,0.5807,0.703,0.5988,0.5759,0.7513,0.6256,0.437,0.6368,0.6532,0.7976,0.5509,0.7243,0.5732,0.5384,0.7219,0.6002,0.6423,0.6084,0.599,0.7459,0.4012,0.7220518589019775,0.6254608631134033,1.0039,0.6038,0.5888,0.6145,0.6106,0.7702
145,0.6619,0.4355,0.6555,0.6863,0.8351,0.5791,0.7077,0.5971,0.5746,0.7489,0.6264,0.4342,0.6372,0.6527,0.8001,0.551,0.7253,0.5751,0.5379,0.7225,0.6013,0.6415,0.6091,0.6002,0.7466,0.4037,0.7254307866096497,0.6231985092163086,1.0107,0.6039,0.5888,0.6148,0.6103,0.7706
146,0.6621,0.4329,0.6558,0.6861,0.8357,0.5799,0.7056,0.5983,0.5751,0.7504,0.6271,0.4311,0.6375,0.6517,0.8025,0.5494,0.7247,0.573,0.5368,0.7222,0.6023,0.6378,0.6097,0.601,0.7498,0.415,0.7224202156066895,0.6262049674987793,1.0178,0.6042,0.5864,0.6149,0.6101,0.7721
147,0.6622,0.4309,0.6558,0.6809,0.8402,0.5804,0.7005,0.6009,0.5751,0.7526,0.6283,0.4295,0.6376,0.6505,0.8063,0.5488,0.7238,0.5711,0.5366,0.7218,0.6026,0.6363,0.6098,0.6011,0.7518,0.3933,0.7263350486755371,0.6234458684921265,1.0245,0.6045,0.5842,0.615,0.6088,0.7745
148,0.6623,0.4339,0.6558,0.6847,0.8371,0.5787,0.7061,0.598,0.574,0.7496,0.6276,0.4326,0.6375,0.652,0.8031,0.5501,0.7236,0.5753,0.5368,0.724,0.6015,0.6395,0.6094,0.6001,0.7491,0.4033,0.7299156785011292,0.6228174567222595,1.0314,0.604,0.5871,0.6152,0.6095,0.7726
149,0.6624,0.4339,0.6559,0.6858,0.8363,0.5792,0.7065,0.598,0.5745,0.7491,0.6273,0.4327,0.6374,0.652,0.8024,0.5503,0.7237,0.5756,0.537,0.7238,0.6016,0.6394,0.6094,0.6002,0.7487,0.3959,0.7266652584075928,0.6236653327941895,1.0381,0.6042,0.5872,0.6153,0.6099,0.7721
150,0.6609,0.4378,0.6549,0.6883,0.8322,0.5807,0.7062,0.5976,0.5764,0.7485,0.6231,0.4381,0.6361,0.6536,0.7928,0.5541,0.7246,0.5761,0.5417,0.7228,0.5995,0.6459,0.6084,0.5992,0.7392,0.4093,0.725730299949646,0.6235695481300354,1.0451,0.6037,0.5905,0.6146,0.6118,0.7671
151,0.6608,0.4381,0.6549,0.6897,0.831,0.5799,0.7112,0.5962,0.576,0.7466,0.6241,0.4377,0.6362,0.6536,0.7944,0.5546,0.7243,0.5792,0.5413,0.7254,0.5992,0.6463,0.6084,0.5989,0.7389,0.4047,0.7268513441085815,0.6252214312553406,1.052,0.6037,0.5915,0.615,0.6119,0.7673
152,0.6616,0.4357,0.6553,0.687,0.8343,0.5797,0.7031,0.5978,0.575,0.7498,0.6252,0.4354,0.6367,0.6533,0.7969,0.5524,0.7228,0.5751,0.5398,0.7238,0.6005,0.6427,0.6089,0.5997,0.7432,0.4013,0.7291990518569946,0.6210798025131226,1.0588,0.6039,0.5879,0.6148,0.611,0.7696
153,0.6612,0.434,0.6556,0.6892,0.832,0.5812,0.701,0.5987,0.5763,0.7512,0.6244,0.4331,0.6374,0.6543,0.7956,0.5495,0.7243,0.5695,0.5379,0.7176,0.6011,0.6385,0.6086,0.6004,0.7452,0.5905,0.7248590588569641,0.6239007711410522,1.0688,0.6035,0.5862,0.614,0.6116,0.7683
154,0.6586,0.4362,0.6543,0.6917,0.8267,0.5813,0.7015,0.5963,0.5769,0.75,0.6207,0.4363,0.6369,0.6563,0.7871,0.5526,0.726,0.57,0.5419,0.7151,0.6008,0.6412,0.6085,0.6013,0.739,0.5698,0.7242141366004944,0.625165581703186,1.0784,0.6028,0.5882,0.6132,0.6136,0.7636
155,0.6602,0.4355,0.655,0.6898,0.8302,0.5817,0.7013,0.5981,0.577,0.7503,0.6226,0.4354,0.6369,0.6548,0.7916,0.5513,0.7249,0.5712,0.5397,0.7191,0.6016,0.6402,0.6093,0.6014,0.7432,0.4972,0.7282240986824036,0.6194658279418945,1.0868,0.6035,0.5875,0.6141,0.6125,0.7669
156,0.6594,0.4365,0.6547,0.6919,0.8276,0.5809,0.7056,0.596,0.5769,0.7481,0.6218,0.4361,0.6369,0.6557,0.7893,0.5539,0.725,0.575,0.5418,0.7199,0.6002,0.643,0.6083,0.6005,0.7387,0.4492,0.7263162136077881,0.6240224242210388,1.0944,0.6032,0.5892,0.6142,0.6134,0.7647
157,0.6598,0.4342,0.6548,0.6898,0.8296,0.5817,0.7029,0.5962,0.5777,0.7486,0.6224,0.4338,0.6371,0.6546,0.7918,0.5569,0.7239,0.5762,0.5453,0.7199,0.6,0.6423,0.6081,0.6005,0.7378,0.4306,0.7273417711257935,0.6214029788970947,1.1017,0.6042,0.5874,0.6145,0.6136,0.7655
158,0.6621,0.4324,0.6555,0.681,0.84,0.5795,0.698,0.6015,0.574,0.7528,0.6279,0.4322,0.6377,0.6527,0.803,0.551,0.7211,0.5738,0.5384,0.7221,0.6014,0.6385,0.6094,0.6,0.7481,0.4175,0.7248166799545288,0.6238329410552979,1.1088,0.6044,0.5844,0.6156,0.6092,0.7732
159,0.6609,0.4359,0.655,0.6882,0.8323,0.5807,0.7019,0.5982,0.576,0.7498,0.6231,0.4364,0.6368,0.6549,0.792,0.5547,0.7235,0.5753,0.5428,0.7192,0.6009,0.6434,0.6093,0.601,0.74,0.4156,0.7253897786140442,0.623162567615509,1.1158,0.6041,0.5882,0.6149,0.6126,0.7667
160,0.6612,0.4305,0.6554,0.6842,0.8359,0.5807,0.6976,0.6,0.5753,0.7523,0.6257,0.43,0.6382,0.6543,0.7983,0.5494,0.7237,0.5678,0.5384,0.7161,0.6031,0.6356,0.61,0.6025,0.7473,0.4148,0.7246679067611694,0.6245132088661194,1.1229,0.604,0.5835,0.6143,0.6109,0.77
161,0.6595,0.4365,0.6549,0.6928,0.8271,0.5799,0.7075,0.5946,0.5763,0.7469,0.6215,0.4366,0.637,0.6568,0.7879,0.5558,0.7247,0.5765,0.5439,0.7187,0.6013,0.6433,0.6095,0.6022,0.7373,0.4079,0.7241178154945374,0.6249441504478455,1.1298,0.6036,0.5897,0.6145,0.6144,0.7636
162,0.6605,0.4334,0.6549,0.6876,0.8322,0.58,0.7017,0.5979,0.5751,0.7498,0.6246,0.4329,0.6378,0.6554,0.795,0.5507,0.7236,0.5718,0.5386,0.72,0.6023,0.637,0.6095,0.6017,0.746,0.4091,0.7222817540168762,0.6247705817222595,1.1367,0.6036,0.5857,0.6144,0.6117,0.7686
163,0.6611,0.4347,0.6552,0.6883,0.8326,0.5792,0.7045,0.5964,0.5749,0.7486,0.6243,0.4348,0.6371,0.6547,0.7944,0.5531,0.7223,0.5761,0.5404,0.7221,0.6009,0.641,0.6091,0.6006,0.7419,0.4136,0.7265163660049438,0.623431921005249,1.1438,0.6037,0.5875,0.6148,0.6118,0.7679
164,0.6612,0.4327,0.6554,0.6874,0.8333,0.579,0.7021,0.5967,0.5744,0.7496,0.6254,0.4322,0.6379,0.6549,0.7969,0.5509,0.7231,0.5724,0.5388,0.7205,0.6026,0.6368,0.6098,0.6021,0.746,0.4075,0.7279638051986694,0.621428906917572,1.1507,0.6038,0.5854,0.6144,0.6115,0.7693
165,0.6592,0.436,0.655,0.6937,0.8262,0.5795,0.7051,0.5928,0.5761,0.7469,0.6208,0.436,0.637,0.6565,0.7872,0.5564,0.7243,0.5756,0.5451,0.7175,0.6014,0.6426,0.6094,0.6028,0.7364,0.4057,0.728951096534729,0.6215665936470032,1.1576,0.6035,0.5888,0.614,0.6148,0.7628
166,0.6605,0.4341,0.6552,0.6894,0.8309,0.5804,0.6986,0.5974,0.5756,0.7505,0.6225,0.4342,0.6376,0.6565,0.7903,0.5538,0.7239,0.5726,0.5425,0.718,0.6012,0.6387,0.6086,0.6013,0.7413,0.4022,0.7255664467811584,0.6227915287017822,1.1644,0.6037,0.5859,0.6143,0.6131,0.7662
167,0.6603,0.4342,0.6552,0.6899,0.8303,0.5808,0.6999,0.5964,0.5764,0.7494,0.6221,0.4344,0.6375,0.6561,0.7901,0.5544,0.7237,0.5728,0.5433,0.7175,0.6014,0.6404,0.6091,0.602,0.7392,0.4133,0.7275339961051941,0.6220453977584839,1.1714,0.6038,0.5865,0.6142,0.6135,0.7653
168,0.6591,0.4358,0.6546,0.692,0.8271,0.5803,0.7027,0.5948,0.5763,0.7482,0.6203,0.4363,0.6369,0.6567,0.7864,0.5547,0.724,0.5731,0.5438,0.7167,0.601,0.6416,0.609,0.602,0.737,0.4016,0.726351797580719,0.622276782989502,1.1782,0.6031,0.5881,0.6137,0.6142,0.7631
169,0.6581,0.4381,0.6547,0.6966,0.8227,0.5797,0.7082,0.5921,0.5768,0.7455,0.6182,0.4383,0.6366,0.6581,0.7817,0.5562,0.7253,0.5756,0.5451,0.7187,0.601,0.6443,0.6095,0.603,0.7335,0.4061,0.72532057762146,0.6249720454216003,1.1851,0.6026,0.5908,0.6137,0.6159,0.7604
170,0.66,0.4353,0.6551,0.6919,0.8284,0.5789,0.7051,0.5944,0.5749,0.7475,0.6215,0.4354,0.6372,0.6568,0.7882,0.5543,0.7247,0.5744,0.5426,0.719,0.6013,0.6405,0.6091,0.602,0.7389,0.4024,0.7245901823043823,0.6235496401786804,1.192,0.6032,0.5882,0.614,0.6136,0.7644
171,0.6611,0.4333,0.6552,0.6878,0.8329,0.5793,0.7016,0.5974,0.5745,0.7498,0.6245,0.4332,0.6379,0.6561,0.7941,0.5502,0.7228,0.5711,0.5383,0.7194,0.6023,0.638,0.6098,0.6021,0.7437,0.4034,0.7219772338867188,0.6248024702072144,1.1988,0.6035,0.5858,0.6143,0.6118,0.768
172,0.6594,0.435,0.6548,0.6918,0.8277,0.5788,0.7047,0.5934,0.5749,0.7471,0.6205,0.4356,0.6371,0.6571,0.7865,0.5548,0.7244,0.5735,0.5437,0.717,0.6014,0.6423,0.6094,0.6028,0.7363,0.4044,0.7269959449768066,0.6233959794044495,1.2057,0.603,0.5884,0.6136,0.6141,0.7629
173,0.6628,0.43,0.6564,0.6848,0.8378,0.5781,0.6997,0.5989,0.5729,0.7515,0.6272,0.4294,0.6386,0.6547,0.8006,0.5494,0.7223,0.5712,0.5372,0.7186,0.6035,0.6342,0.6104,0.6026,0.7489,0.4024,0.7246060371398926,0.6257122159004211,1.2125,0.6042,0.5831,0.6151,0.6104,0.7715
174,0.661,0.4318,0.6556,0.6889,0.8321,0.578,0.7031,0.5945,0.5738,0.7486,0.6247,0.4311,0.6386,0.6569,0.7944,0.551,0.7236,0.5711,0.5392,0.7188,0.6028,0.6359,0.6099,0.6029,0.7438,0.4021,0.7242000699043274,0.6257301568984985,1.2193,0.6035,0.5851,0.6139,0.6123,0.7675
175,0.6606,0.4329,0.6551,0.6886,0.8317,0.5774,0.7067,0.5938,0.5734,0.7471,0.6244,0.4324,0.6381,0.6564,0.794,0.5538,0.7233,0.5756,0.5414,0.7207,0.602,0.6386,0.6096,0.6022,0.7416,0.4076,0.7261173129081726,0.6219576001167297,1.2263,0.6036,0.5868,0.6144,0.6124,0.767
176,0.6601,0.4341,0.6552,0.6919,0.8287,0.5787,0.7019,0.5944,0.5745,0.748,0.621,0.4346,0.6375,0.6577,0.7869,0.5532,0.7232,0.5719,0.5421,0.7172,0.6022,0.6398,0.6099,0.6034,0.7384,0.4001,0.7224321365356445,0.6263546347618103,1.2331,0.603,0.5867,0.6138,0.6139,0.7638
177,0.6603,0.4355,0.6552,0.6921,0.8288,0.5767,0.7071,0.5929,0.5728,0.7464,0.6225,0.4356,0.6376,0.658,0.7889,0.5527,0.7239,0.5746,0.5404,0.7202,0.6022,0.6394,0.61,0.6025,0.741,0.4064,0.7235854268074036,0.6242738366127014,1.24,0.6029,0.5883,0.6141,0.6132,0.7651
178,0.6629,0.4297,0.6564,0.6843,0.8383,0.5773,0.7036,0.5971,0.5724,0.7491,0.6269,0.429,0.6383,0.6541,0.8006,0.5519,0.7216,0.5745,0.5393,0.7199,0.6035,0.6371,0.6108,0.6031,0.7458,0.401,0.7262547612190247,0.6234837770462036,1.2469,0.6045,0.5842,0.6154,0.6106,0.7707
179,0.6605,0.4312,0.6552,0.6877,0.8322,0.5793,0.6988,0.5967,0.5745,0.7501,0.6229,0.431,0.6383,0.657,0.7914,0.5525,0.7237,0.5703,0.5415,0.7148,0.603,0.6364,0.61,0.6035,0.7423,0.4044,0.7256414294242859,0.6235396265983582,1.2537,0.6036,0.5842,0.6141,0.6128,0.7662
180,0.6595,0.4348,0.6551,0.6929,0.8272,0.5783,0.7022,0.5922,0.5747,0.747,0.6198,0.4353,0.6373,0.6582,0.7845,0.5554,0.7236,0.5738,0.5445,0.718,0.6013,0.6426,0.6096,0.6031,0.735,0.4006,0.7286002039909363,0.6233521103858948,1.2605,0.6029,0.5877,0.6136,0.6147,0.7623
181,0.6625,0.4293,0.6564,0.6856,0.8367,0.578,0.697,0.5978,0.5728,0.7516,0.6265,0.4289,0.6388,0.6555,0.799,0.5502,0.7214,0.571,0.5384,0.7191,0.6042,0.6335,0.611,0.6038,0.748,0.4046,0.7214472889900208,0.627388060092926,1.2674,0.6043,0.582,0.615,0.6112,0.7709
182,0.6622,0.4272,0.6561,0.6825,0.8387,0.5789,0.6966,0.5984,0.5737,0.7519,0.6265,0.4267,0.6386,0.6538,0.8007,0.5525,0.7209,0.5723,0.5409,0.7186,0.6033,0.6334,0.61,0.603,0.7469,0.4102,0.7255029082298279,0.6241082549095154,1.2744,0.6047,0.581,0.6151,0.6108,0.7714
183,0.6621,0.4311,0.656,0.6868,0.8351,0.5786,0.6983,0.5976,0.5735,0.7506,0.6247,0.4313,0.6384,0.6567,0.7944,0.5524,0.7214,0.5728,0.5405,0.7189,0.6031,0.6365,0.6104,0.6031,0.7439,0.4031,0.7220600843429565,0.6262129545211792,1.2812,0.6042,0.5837,0.615,0.6121,0.7686
184,0.6602,0.4325,0.6551,0.6894,0.8305,0.5788,0.6974,0.5957,0.574,0.7502,0.6216,0.4334,0.6381,0.6586,0.7877,0.553,0.7228,0.57,0.5424,0.7153,0.6034,0.6374,0.6107,0.6045,0.7404,0.4002,0.7255904078483582,0.623212456703186,1.288,0.6034,0.5847,0.6139,0.6138,0.7648
185,0.6599,0.4309,0.655,0.689,0.8304,0.5788,0.6988,0.5945,0.5745,0.7489,0.6214,0.4315,0.6381,0.658,0.7882,0.5524,0.7224,0.5695,0.5418,0.7141,0.6032,0.6372,0.6104,0.6044,0.7399,0.4096,0.7225612998008728,0.6263406276702881,1.295,0.6031,0.5842,0.6135,0.6135,0.7643
186,0.6608,0.4312,0.6555,0.689,0.8318,0.5783,0.6988,0.5955,0.5737,0.7496,0.6221,0.4319,0.6381,0.6579,0.7892,0.5532,0.7222,0.5714,0.5421,0.7159,0.6032,0.6372,0.6103,0.604,0.7409,0.4009,0.7226721048355103,0.625434935092926,1.3018,0.6035,0.5843,0.6142,0.6133,0.7655
187,0.6604,0.4323,0.6554,0.6907,0.83,0.5777,0.701,0.5937,0.5734,0.7484,0.6214,0.433,0.6379,0.6581,0.7879,0.5535,0.723,0.5723,0.5422,0.7167,0.6034,0.6375,0.6107,0.6045,0.7405,0.4066,0.724703848361969,0.6234179735183716,1.3087,0.6033,0.5854,0.614,0.6138,0.7647
188,0.6633,0.4287,0.6569,0.6853,0.8381,0.5767,0.6991,0.5967,0.5718,0.7507,0.6272,0.4285,0.6389,0.6554,0.8002,0.5513,0.7205,0.5732,0.539,0.7195,0.6046,0.6336,0.6114,0.6043,0.7476,0.3998,0.7236284613609314,0.6239466071128845,1.3155,0.6046,0.5821,0.6154,0.6112,0.7712
189,0.6578,0.4379,0.6549,0.699,0.821,0.5765,0.7097,0.588,0.5742,0.7428,0.6153,0.4395,0.6363,0.6609,0.7753,0.5594,0.7246,0.578,0.5492,0.7186,0.6011,0.6457,0.6102,0.6046,0.7295,0.4027,0.7200267910957336,0.6266598701477051,1.3223,0.602,0.5915,0.6135,0.6176,0.7574
190,0.659,0.434,0.6548,0.6932,0.8264,0.5766,0.7042,0.5905,0.5731,0.7458,0.6196,0.435,0.6374,0.659,0.7839,0.5541,0.723,0.5725,0.5432,0.716,0.6019,0.6401,0.6099,0.6037,0.7359,0.4052,0.7228992581367493,0.6232025027275085,1.3292,0.6022,0.5873,0.613,0.6144,0.7616
191,0.6609,0.4321,0.6555,0.6896,0.8315,0.5777,0.6996,0.595,0.5731,0.7496,0.6228,0.4332,0.6381,0.6583,0.7897,0.5524,0.7212,0.5716,0.5411,0.7175,0.603,0.6362,0.6104,0.6036,0.7413,0.4032,0.7254072427749634,0.6241082549095154,1.336,0.6034,0.5845,0.6141,0.6131,0.7659
192,0.6626,0.4291,0.6562,0.6843,0.8379,0.577,0.6965,0.5964,0.5721,0.751,0.6262,0.4299,0.6389,0.6568,0.797,0.5523,0.7198,0.5718,0.5407,0.7189,0.6036,0.6343,0.6108,0.6035,0.7447,0.4049,0.7214993238449097,0.6257122159004211,1.3429,0.6043,0.5819,0.6148,0.6115,0.7699
193,0.663,0.429,0.6563,0.6804,0.842,0.5771,0.6949,0.5993,0.5717,0.7525,0.628,0.4301,0.6386,0.655,0.8014,0.5512,0.7177,0.5721,0.5392,0.7203,0.6038,0.6352,0.6114,0.6032,0.7469,0.4153,0.7208768725395203,0.6275596022605896,1.35,0.6046,0.5814,0.6155,0.6099,0.7726
194,0.6633,0.4333,0.6565,0.6871,0.8368,0.5749,0.7028,0.5948,0.5704,0.7487,0.626,0.4346,0.6382,0.6575,0.7952,0.5531,0.7195,0.5773,0.5399,0.7251,0.6032,0.638,0.6113,0.6028,0.7445,0.397,0.7237723469734192,0.6235197186470032,1.3567,0.6041,0.5856,0.6156,0.6115,0.7701
195,0.6629,0.4316,0.6562,0.6847,0.8381,0.5752,0.7011,0.5952,0.5706,0.7496,0.6267,0.4328,0.6385,0.6569,0.7972,0.5544,0.7191,0.5775,0.5415,0.7243,0.6032,0.6375,0.6111,0.603,0.744,0.4028,0.7231065034866333,0.6239306926727295,1.3635,0.6045,0.5844,0.6157,0.6113,0.7706
196,0.6636,0.4278,0.6569,0.6816,0.8419,0.5747,0.6996,0.5961,0.5699,0.7509,0.6293,0.4279,0.6392,0.6549,0.8045,0.549,0.7191,0.5728,0.5364,0.7223,0.6053,0.6321,0.6124,0.6044,0.7507,0.4033,0.7241286039352417,0.6246289014816284,1.3704,0.6044,0.5813,0.6155,0.6094,0.7741
197,0.6629,0.4268,0.6565,0.6761,0.8462,0.5735,0.6967,0.5996,0.5682,0.7532,0.6315,0.4269,0.6395,0.6541,0.8096,0.5462,0.7181,0.5714,0.5336,0.7247,0.6049,0.6293,0.6121,0.6032,0.7554,0.402,0.7228785753250122,0.626837432384491,1.3772,0.6038,0.5796,0.6158,0.607,0.7778
198,0.6594,0.4331,0.6558,0.697,0.8245,0.5754,0.7065,0.5873,0.5726,0.7445,0.6188,0.4335,0.6377,0.6597,0.7826,0.5548,0.7236,0.5728,0.5439,0.7159,0.6035,0.637,0.6108,0.6054,0.7377,0.4018,0.7213456034660339,0.6251556277275085,1.3841,0.6024,0.5867,0.6129,0.6157,0.761
199,0.6621,0.4302,0.656,0.6868,0.8353,0.5752,0.701,0.5923,0.5711,0.7486,0.6257,0.4308,0.6388,0.6577,0.7951,0.5544,0.7194,0.5752,0.5423,0.7197,0.6034,0.6359,0.6109,0.6037,0.7426,0.404,0.7212117910385132,0.6272623538970947,1.3909,0.6042,0.5835,0.6146,0.6123,0.7683
200,0.6636,0.4282,0.6568,0.6798,0.8437,0.5747,0.6987,0.5974,0.5697,0.7515,0.6302,0.4284,0.6392,0.6549,0.8059,0.5504,0.717,0.5757,0.5371,0.7241,0.605,0.6332,0.6125,0.6039,0.7508,0.4098,0.7256380319595337,0.6254329085350037,1.3979,0.6048,0.5811,0.6163,0.6091,0.7752
201,0.6617,0.4318,0.656,0.6905,0.8319,0.5756,0.7018,0.5913,0.5717,0.7475,0.6231,0.4328,0.6382,0.6584,0.7902,0.5556,0.72,0.5762,0.5436,0.7188,0.6033,0.6375,0.611,0.6043,0.7403,0.4052,0.7230676412582397,0.6243835091590881,1.4047,0.6039,0.5848,0.6145,0.6137,0.7657
202,0.6625,0.4283,0.6561,0.6821,0.8398,0.5764,0.6945,0.5969,0.5713,0.7517,0.626,0.4292,0.6388,0.6563,0.7971,0.5519,0.7189,0.5718,0.5402,0.7197,0.6039,0.633,0.611,0.6037,0.7464,0.404,0.7218830585479736,0.6257162094116211,1.4116,0.6041,0.5808,0.6149,0.6107,0.7709
203,0.6602,0.4327,0.655,0.6896,0.8304,0.5763,0.7004,0.591,0.5726,0.7473,0.6202,0.4343,0.6376,0.659,0.7848,0.557,0.7208,0.5757,0.5461,0.7184,0.6025,0.6401,0.6106,0.6042,0.7365,0.4018,0.7267584204673767,0.6214408874511719,1.4185,0.6032,0.5857,0.614,0.6143,0.7635
204,0.6601,0.432,0.6553,0.6911,0.8294,0.5762,0.7028,0.5908,0.5725,0.7468,0.6202,0.4332,0.6377,0.6586,0.7855,0.5556,0.7218,0.5746,0.5443,0.718,0.6036,0.6376,0.6111,0.6052,0.7391,0.4038,0.7233787775039673,0.624610960483551,1.4253,0.6031,0.5855,0.6139,0.6143,0.7638
205,0.6623,0.4255,0.6561,0.6757,0.8456,0.5746,0.6943,0.6,0.5692,0.7539,0.6307,0.4257,0.6396,0.6542,0.8081,0.5471,0.7174,0.5714,0.5347,0.7231,0.6056,0.6291,0.6125,0.6042,0.7544,0.4016,0.7259281873703003,0.6244154572486877,1.4321,0.6041,0.5784,0.6159,0.6076,0.777
206,0.6605,0.4357,0.6551,0.6918,0.8293,0.5757,0.7053,0.5917,0.572,0.747,0.6205,0.438,0.6368,0.6588,0.7848,0.5545,0.7201,0.5769,0.5423,0.7217,0.603,0.6419,0.6117,0.6043,0.7373,0.4102,0.7221319079399109,0.626737654209137,1.4391,0.6028,0.5882,0.6144,0.6138,0.764
207,0.6609,0.4277,0.6556,0.6869,0.8335,0.5766,0.6974,0.5926,0.5723,0.7495,0.6234,0.4282,0.6388,0.6575,0.7923,0.555,0.7203,0.5732,0.5438,0.7185,0.6041,0.633,0.6108,0.6049,0.7429,0.4147,0.7202168107032776,0.6245970129966736,1.4461,0.604,0.5813,0.6142,0.6131,0.7673
208,0.66,0.4316,0.6549,0.689,0.8307,0.5765,0.6995,0.5924,0.5724,0.7485,0.6208,0.4334,0.6377,0.6587,0.7862,0.5559,0.72,0.5747,0.5446,0.7179,0.6037,0.6374,0.6113,0.605,0.7395,0.4002,0.7243778705596924,0.6228074431419373,1.4529,0.6034,0.5844,0.6142,0.6139,0.7646
209,0.6594,0.4332,0.6554,0.6947,0.8259,0.5766,0.7024,0.5893,0.5734,0.7457,0.6176,0.4351,0.6375,0.6606,0.7798,0.5581,0.7215,0.5756,0.5477,0.7162,0.6033,0.6395,0.6112,0.6061,0.7345,0.3963,0.7248098254203796,0.6233580708503723,1.4596,0.603,0.5863,0.6138,0.6165,0.7604
210,0.6618,0.4284,0.6559,0.6859,0.8356,0.5755,0.6963,0.5925,0.5712,0.7495,0.6242,0.4295,0.6388,0.6577,0.7932,0.5552,0.7188,0.5744,0.5437,0.7199,0.6042,0.634,0.6113,0.6047,0.7434,0.4031,0.7210878133773804,0.6252753138542175,1.4665,0.6042,0.5814,0.6146,0.6126,0.7683
211,0.66,0.4311,0.6553,0.6917,0.8288,0.5747,0.7025,0.5889,0.5712,0.7467,0.6207,0.4323,0.638,0.6592,0.786,0.5551,0.7206,0.5738,0.5439,0.717,0.6042,0.6365,0.6115,0.6058,0.7395,0.4003,0.7170448303222656,0.628521203994751,1.4733,0.6029,0.5846,0.6135,0.6144,0.7636
212,0.6619,0.4271,0.6561,0.6858,0.8358,0.5755,0.6977,0.5932,0.5709,0.7497,0.6246,0.4275,0.6392,0.6576,0.7943,0.5538,0.72,0.5723,0.5425,0.7177,0.6049,0.6317,0.6113,0.6053,0.7452,0.4081,0.7234485745429993,0.6234338879585266,1.4802,0.6041,0.5808,0.6144,0.6124,0.7685
213,0.6595,0.431,0.6552,0.6917,0.8282,0.5755,0.7042,0.5886,0.5723,0.7453,0.6198,0.4322,0.6379,0.6591,0.7847,0.558,0.7207,0.5764,0.5472,0.7171,0.6036,0.6388,0.6113,0.606,0.7359,0.406,0.7198852300643921,0.6261511445045471,1.4871,0.6033,0.5854,0.6139,0.6153,0.7622
214,0.6628,0.428,0.6563,0.683,0.8396,0.5747,0.6961,0.5943,0.57,0.7511,0.6268,0.429,0.6389,0.6567,0.7981,0.5537,0.7168,0.5762,0.541,0.7219,0.6055,0.6325,0.6126,0.6053,0.7475,0.3985,0.7197470664978027,0.6272743344306946,1.4939,0.6047,0.5805,0.6157,0.6112,0.7716
215,0.6632,0.4248,0.6568,0.6801,0.8426,0.5752,0.6979,0.5961,0.5703,0.7506,0.6279,0.4252,0.6393,0.6553,0.8019,0.5542,0.7174,0.5761,0.5417,0.7229,0.605,0.6313,0.6117,0.6047,0.748,0.4086,0.7187226414680481,0.6272144913673401,1.5008,0.6051,0.5793,0.616,0.6104,0.7732
216,0.6601,0.4322,0.6546,0.6872,0.8321,0.5764,0.6996,0.5933,0.5721,0.7488,0.6198,0.4353,0.6371,0.6591,0.784,0.5572,0.7196,0.5756,0.5465,0.7203,0.604,0.6407,0.6124,0.606,0.7368,0.4054,0.7240976691246033,0.6222129464149475,1.5078,0.6035,0.5855,0.6146,0.6142,0.7644
217,0.6604,0.4303,0.6548,0.6855,0.8338,0.5761,0.6994,0.5933,0.5717,0.7488,0.6208,0.4328,0.6376,0.658,0.7867,0.5565,0.7197,0.5745,0.5458,0.7193,0.6038,0.6384,0.6116,0.6053,0.7386,0.3963,0.7228593826293945,0.6236733198165894,1.5145,0.6035,0.5841,0.6144,0.6133,0.7654
218,0.6624,0.4291,0.6559,0.6834,0.8385,0.5736,0.7016,0.5929,0.5692,0.7484,0.6245,0.4307,0.638,0.6563,0.7943,0.5568,0.7179,0.5791,0.5442,0.7253,0.6046,0.6372,0.6124,0.605,0.743,0.4065,0.7239500284194946,0.6239606142044067,1.5214,0.6044,0.5833,0.6157,0.6116,0.7699
219,0.662,0.4252,0.6557,0.6772,0.8437,0.5747,0.6962,0.5974,0.5695,0.7522,0.6283,0.4259,0.6393,0.6555,0.8024,0.5536,0.7164,0.5759,0.541,0.723,0.6053,0.6316,0.6123,0.6047,0.7494,0.4011,0.7195590138435364,0.6278289556503296,1.5283,0.6048,0.5791,0.6161,0.6096,0.7741
220,0.6629,0.4254,0.6565,0.6806,0.8418,0.574,0.6959,0.5938,0.5693,0.7509,0.6269,0.4262,0.639,0.6558,0.7996,0.5539,0.717,0.5747,0.5418,0.7214,0.6053,0.6314,0.6122,0.6052,0.7475,0.4064,0.7222273349761963,0.6252094507217407,1.5352,0.6046,0.5792,0.6152,0.6105,0.7722
221,0.659,0.4336,0.6549,0.6942,0.8258,0.5743,0.7052,0.5875,0.5713,0.745,0.6164,0.4362,0.6371,0.6618,0.7769,0.5589,0.7214,0.5774,0.5483,0.7186,0.6027,0.6412,0.6112,0.6055,0.7335,0.4023,0.7237359881401062,0.6232463717460632,1.542,0.6023,0.5875,0.6136,0.6162,0.76
222,0.6617,0.4298,0.6557,0.6864,0.8352,0.574,0.6999,0.5912,0.5699,0.7484,0.6219,0.4317,0.638,0.6585,0.7883,0.5554,0.7195,0.5752,0.5438,0.7213,0.6051,0.637,0.6126,0.6063,0.7413,0.4035,0.7259247899055481,0.6219256520271301,1.5488,0.6036,0.5836,0.6145,0.613,0.7669
223,0.6622,0.427,0.6563,0.6858,0.8363,0.5736,0.6998,0.5902,0.5695,0.748,0.6238,0.4276,0.6393,0.6588,0.792,0.5558,0.7202,0.5747,0.5443,0.7198,0.6049,0.6335,0.6117,0.606,0.7427,0.41,0.7220953106880188,0.6254628300666809,1.5558,0.6041,0.5816,0.6144,0.6129,0.7678
224,0.6616,0.43,0.6558,0.6875,0.8342,0.573,0.7056,0.5883,0.5696,0.7458,0.6225,0.4314,0.6381,0.6582,0.7895,0.5585,0.7196,0.5798,0.5465,0.7237,0.6032,0.64,0.6114,0.6048,0.7376,0.4061,0.7196095585823059,0.6264523863792419,1.5627,0.6038,0.5853,0.6147,0.6133,0.7662
225,0.6616,0.425,0.6555,0.6743,0.8461,0.5734,0.6952,0.5963,0.5684,0.7522,0.6296,0.426,0.6395,0.6555,0.8044,0.5542,0.7156,0.5772,0.5413,0.7248,0.6056,0.6324,0.6128,0.6049,0.75,0.4054,0.7222872972488403,0.6265501379966736,1.5696,0.6049,0.5788,0.6163,0.6089,0.7755
226,0.6604,0.4297,0.6552,0.6889,0.8314,0.5734,0.7032,0.5878,0.57,0.7458,0.6207,0.4311,0.638,0.6587,0.7865,0.5585,0.7197,0.5779,0.5471,0.7202,0.6039,0.6371,0.6115,0.6056,0.7385,0.4017,0.7211138010025024,0.6246189475059509,1.5764,0.6034,0.5842,0.6141,0.6141,0.7645
227,0.6595,0.4303,0.6544,0.6871,0.8315,0.5753,0.6993,0.5905,0.5714,0.7481,0.6194,0.433,0.6377,0.6594,0.7836,0.5589,0.7194,0.5766,0.5484,0.7197,0.6042,0.6379,0.612,0.6064,0.7376,0.4046,0.7247419357299805,0.6226359009742737,1.5833,0.6035,0.584,0.6142,0.6145,0.7641
228,0.6595,0.4308,0.6546,0.689,0.83,0.5734,0.7038,0.5876,0.5702,0.7454,0.6192,0.4329,0.6377,0.6597,0.783,0.561,0.7197,0.5802,0.5499,0.7209,0.6036,0.6396,0.6116,0.6059,0.7359,0.4111,0.72163325548172,0.6267216801643372,1.5903,0.6033,0.5854,0.6143,0.6149,0.763
229,0.6608,0.4298,0.655,0.6859,0.8343,0.5743,0.6987,0.5917,0.5701,0.749,0.6214,0.4321,0.638,0.6592,0.7871,0.5562,0.7185,0.5757,0.5446,0.7207,0.6052,0.6354,0.6126,0.6064,0.742,0.4075,0.7250734567642212,0.6227755546569824,1.5972,0.6036,0.5829,0.6146,0.6132,0.7666
230,0.6599,0.4329,0.6546,0.6887,0.8309,0.5745,0.7015,0.5901,0.5708,0.7474,0.6186,0.4365,0.637,0.6604,0.7809,0.5604,0.7189,0.5806,0.5492,0.7222,0.6035,0.641,0.6121,0.6056,0.7358,0.4083,0.7206304669380188,0.6256403923034668,1.6041,0.6034,0.5862,0.6149,0.6149,0.7634
231,0.6603,0.4294,0.6549,0.6872,0.8326,0.5736,0.7026,0.5888,0.57,0.7461,0.6203,0.4319,0.6378,0.659,0.7855,0.5603,0.7184,0.5798,0.5491,0.7223,0.6036,0.6384,0.6116,0.6055,0.737,0.4028,0.7183628678321838,0.6276832818984985,1.611,0.6036,0.5841,0.6146,0.6142,0.7647
232,0.6597,0.4309,0.6553,0.6926,0.8279,0.5729,0.7054,0.5858,0.5702,0.7441,0.6175,0.4337,0.6375,0.661,0.7796,0.5601,0.7198,0.5786,0.5498,0.7192,0.6027,0.6402,0.6113,0.6056,0.7332,0.398,0.7215397357940674,0.6242199540138245,1.6178,0.6026,0.586,0.6137,0.6158,0.7608
233,0.6584,0.4313,0.6549,0.694,0.8251,0.5765,0.7014,0.5891,0.5732,0.7466,0.6135,0.4348,0.6368,0.6612,0.7735,0.5614,0.7204,0.5759,0.5533,0.7145,0.6021,0.6398,0.6107,0.6059,0.7308,0.4391,0.7202568650245667,0.6256403923034668,1.6252,0.6024,0.5855,0.6135,0.6175,0.7581
234,0.6606,0.4316,0.6549,0.687,0.8332,0.5735,0.7021,0.5897,0.5698,0.7474,0.6201,0.4351,0.6373,0.6595,0.7841,0.5593,0.7178,0.5802,0.5476,0.7228,0.6039,0.6391,0.6124,0.6056,0.7377,1.1782,0.7233904004096985,0.6248024702072144,1.645,0.6035,0.5851,0.6149,0.6139,0.765
235,0.6574,0.4388,0.6546,0.6993,0.8203,0.5741,0.706,0.5851,0.572,0.7431,0.6085,0.4439,0.6342,0.6622,0.7638,0.5636,0.7225,0.5812,0.5555,0.7181,0.5998,0.6462,0.6101,0.6045,0.7247,0.3717,0.7247841358184814,0.6214688420295715,1.6512,0.6007,0.5915,0.613,0.6187,0.754
236,0.6613,0.4282,0.6557,0.6867,0.8344,0.5737,0.6982,0.5892,0.5699,0.7482,0.6207,0.4309,0.6382,0.6592,0.7861,0.5588,0.718,0.5762,0.5483,0.7184,0.6045,0.6363,0.6122,0.6064,0.7387,0.408,0.7207893133163452,0.6260074973106384,1.6582,0.6038,0.5823,0.6143,0.6141,0.7652
237,0.6605,0.4284,0.6554,0.6891,0.8314,0.5729,0.7034,0.5869,0.5697,0.7452,0.6191,0.4307,0.638,0.6596,0.7833,0.5608,0.7191,0.579,0.5501,0.7202,0.6037,0.638,0.6115,0.6062,0.7361,0.3989,0.7184598445892334,0.627007007598877,1.6649,0.6034,0.5839,0.6142,0.6149,0.7632
238,0.66,0.4286,0.6551,0.6887,0.831,0.5742,0.6983,0.5888,0.5704,0.748,0.618,0.4317,0.6379,0.6602,0.7812,0.5589,0.7187,0.575,0.549,0.7173,0.6041,0.6361,0.6116,0.6064,0.7371,0.4029,0.7221261858940125,0.6247286796569824,1.6718,0.603,0.5827,0.6137,0.6149,0.7629
239,0.6612,0.4257,0.6556,0.6845,0.836,0.5739,0.6948,0.5896,0.5699,0.7494,0.6218,0.4284,0.6388,0.659,0.7886,0.5579,0.7174,0.574,0.5477,0.7178,0.6048,0.6339,0.6119,0.6066,0.74,0.4011,0.7187406420707703,0.6262807846069336,1.6786,0.6039,0.58,0.614,0.6135,0.7664
240,0.6601,0.4342,0.6554,0.6939,0.8275,0.5726,0.7044,0.5856,0.5698,0.7443,0.6158,0.4383,0.6365,0.6619,0.7754,0.5605,0.7192,0.5802,0.5503,0.7205,0.6014,0.6439,0.6108,0.6045,0.7304,0.406,0.7223159670829773,0.6237910389900208,1.6855,0.6021,0.588,0.6137,0.6161,0.7596
241,0.6579,0.4335,0.6556,0.6996,0.8212,0.5753,0.7085,0.5848,0.5739,0.741,0.611,0.4369,0.6359,0.6619,0.7687,0.5645,0.7214,0.5812,0.5563,0.7163,0.5997,0.644,0.6095,0.6046,0.7246,0.4023,0.7239988446235657,0.622831404209137,1.6923,0.6017,0.5889,0.6134,0.6193,0.7544
242,0.6618,0.4262,0.656,0.686,0.8356,0.5728,0.6989,0.5881,0.5691,0.7483,0.6219,0.4286,0.6385,0.6583,0.7891,0.5588,0.7177,0.5759,0.5483,0.7195,0.6048,0.6346,0.612,0.6065,0.7398,0.401,0.7210547924041748,0.6252533793449402,1.6991,0.604,0.5812,0.6141,0.6136,0.7665
243,0.6617,0.4301,0.6554,0.6843,0.837,0.5721,0.6985,0.589,0.5683,0.7486,0.6215,0.4343,0.6373,0.6588,0.7868,0.559,0.716,0.579,0.5478,0.7219,0.6044,0.6391,0.6129,0.606,0.7384,0.4037,0.7195674180984497,0.6264224648475647,1.706,0.6037,0.5836,0.6147,0.613,0.7665
244,0.6615,0.4271,0.6556,0.685,0.836,0.5731,0.6981,0.5889,0.5693,0.7487,0.6216,0.4301,0.638,0.6582,0.7882,0.5591,0.7163,0.577,0.5483,0.7198,0.6047,0.6355,0.6123,0.6064,0.7394,0.4063,0.7197445631027222,0.6254927515983582,1.7129,0.604,0.5814,0.6144,0.6134,0.7664
245,0.6605,0.4308,0.6556,0.6917,0.8296,0.5714,0.7055,0.585,0.5686,0.7442,0.6174,0.434,0.6373,0.6608,0.7795,0.5596,0.7195,0.5786,0.549,0.7204,0.6032,0.6384,0.6114,0.6058,0.7351,0.4078,0.7236030697822571,0.6226498484611511,1.7198,0.6024,0.5856,0.6136,0.6152,0.7618
246,0.6603,0.431,0.6556,0.6926,0.8287,0.5733,0.7026,0.5873,0.57,0.7465,0.6162,0.4347,0.637,0.6609,0.7774,0.5598,0.7192,0.5769,0.55,0.7184,0.6035,0.6379,0.6117,0.6061,0.7352,0.4003,0.7233119010925293,0.624271810054779,1.7266,0.6026,0.5851,0.6137,0.6159,0.7612
247,0.6606,0.4302,0.6553,0.6892,0.8316,0.573,0.6989,0.588,0.5694,0.7482,0.6181,0.4341,0.6376,0.661,0.7804,0.5596,0.7184,0.5767,0.5493,0.7197,0.605,0.6359,0.6127,0.6071,0.7387,0.4063,0.7219191789627075,0.6247665882110596,1.7335,0.6033,0.5835,0.6141,0.6152,0.7637
248,0.6594,0.4331,0.6558,0.6971,0.8246,0.5742,0.7053,0.5857,0.5718,0.7439,0.6132,0.4373,0.6361,0.6615,0.7723,0.5655,0.7196,0.5829,0.5567,0.719,0.6013,0.6432,0.6106,0.6054,0.7281,0.4063,0.7216687202453613,0.6258878111839294,1.7404,0.6027,0.5877,0.6142,0.6185,0.7576
249,0.6605,0.4288,0.6553,0.6889,0.8316,0.5731,0.7025,0.587,0.5698,0.7466,0.6187,0.4315,0.6378,0.6601,0.7821,0.561,0.7176,0.5788,0.5509,0.7201,0.6031,0.6382,0.6113,0.6058,0.7348,0.4049,0.7173806428909302,0.6258259415626526,1.7473,0.6033,0.5837,0.614,0.6151,0.763
250,0.6597,0.4328,0.6556,0.6955,0.8261,0.5745,0.7026,0.5861,0.5718,0.7455,0.6135,0.4369,0.6361,0.6615,0.7725,0.5625,0.7188,0.5797,0.5535,0.7194,0.6021,0.6415,0.6113,0.6059,0.7297,0.3982,0.7175452709197998,0.6275536417961121,1.7541,0.6025,0.5865,0.6138,0.6176,0.7586
251,0.6587,0.434,0.6553,0.6969,0.8238,0.5751,0.7022,0.5866,0.5724,0.7457,0.6109,0.4387,0.6354,0.6617,0.7685,0.5634,0.7194,0.5797,0.5552,0.7176,0.6017,0.643,0.6113,0.6062,0.7276,0.4026,0.7223315834999084,0.6241121888160706,1.7609,0.602,0.5875,0.6137,0.6185,0.7566
252,0.6609,0.4292,0.6555,0.6887,0.8324,0.5719,0.702,0.5855,0.5689,0.746,0.6189,0.4325,0.6378,0.6606,0.7819,0.5614,0.7175,0.5794,0.5512,0.7212,0.603,0.6381,0.6115,0.6055,0.7349,0.4025,0.7185088396072388,0.6283954977989197,1.7677,0.6032,0.5839,0.6139,0.615,0.7633
253,0.6623,0.4266,0.6558,0.6818,0.8401,0.5701,0.7008,0.5869,0.5666,0.7476,0.6243,0.4294,0.6386,0.6582,0.7926,0.5574,0.7156,0.5784,0.5452,0.7245,0.606,0.6339,0.6137,0.6067,0.744,0.4081,0.7207793593406677,0.6257720589637756,1.7747,0.604,0.5813,0.6147,0.6117,0.7698
254,0.6612,0.4263,0.6554,0.6845,0.836,0.5721,0.6977,0.5879,0.5683,0.7487,0.6212,0.4291,0.6384,0.6592,0.7871,0.5592,0.7167,0.5758,0.5489,0.7195,0.6055,0.6333,0.6127,0.607,0.7412,0.3993,0.7208168506622314,0.625285267829895,1.7815,0.6038,0.5806,0.614,0.6136,0.7665
255,0.6612,0.4267,0.656,0.6895,0.8322,0.573,0.7008,0.5866,0.5697,0.7467,0.619,0.4289,0.6386,0.6606,0.7829,0.5606,0.7185,0.5772,0.5503,0.7183,0.605,0.6334,0.6121,0.6071,0.7392,0.4061,0.7197802662849426,0.6248922944068909,1.7884,0.6038,0.5817,0.6141,0.6154,0.7639
256,0.6611,0.4258,0.6551,0.682,0.838,0.5718,0.7009,0.588,0.5681,0.7474,0.6222,0.4283,0.6384,0.6583,0.7894,0.561,0.7162,0.5804,0.5495,0.722,0.6049,0.6353,0.6125,0.6063,0.7407,0.4011,0.7230156064033508,0.622827410697937,1.7952,0.6042,0.5813,0.6149,0.6128,0.7675
257,0.6606,0.4303,0.6548,0.6859,0.8342,0.5723,0.7037,0.588,0.5689,0.7465,0.6191,0.4342,0.6372,0.6601,0.7821,0.5617,0.7166,0.582,0.5508,0.7222,0.6034,0.6402,0.6121,0.6054,0.7361,0.4072,0.7190122604370117,0.625678300857544,1.8021,0.6034,0.585,0.6148,0.6142,0.7642
258,0.6605,0.4305,0.6552,0.6899,0.831,0.5738,0.7023,0.5876,0.5705,0.7464,0.6163,0.4346,0.6369,0.6609,0.7772,0.5606,0.7178,0.5787,0.5506,0.7197,0.6029,0.6396,0.6116,0.6055,0.7343,0.3981,0.7169268727302551,0.6282798051834106,1.8088,0.6028,0.585,0.614,0.6155,0.7617
259,0.6603,0.4311,0.6558,0.694,0.8279,0.5732,0.7071,0.585,0.5708,0.7429,0.6153,0.4342,0.6367,0.6608,0.7759,0.564,0.7185,0.583,0.5541,0.7213,0.602,0.6417,0.611,0.6055,0.7306,0.4038,0.7220875024795532,0.625989556312561,1.8157,0.603,0.5865,0.6143,0.617,0.7597
260,0.6618,0.4261,0.6557,0.6826,0.8387,0.5719,0.6997,0.5881,0.5682,0.7486,0.6229,0.4288,0.6386,0.6585,0.7904,0.5606,0.7156,0.5802,0.549,0.7217,0.6053,0.6344,0.6127,0.6064,0.7418,0.4028,0.7261074185371399,0.6226039528846741,1.8225,0.6045,0.5809,0.6151,0.6129,0.7682
261,0.6614,0.4269,0.6559,0.6876,0.834,0.5729,0.7035,0.587,0.5697,0.7457,0.62,0.4293,0.6382,0.6592,0.7852,0.5616,0.7174,0.5797,0.551,0.7197,0.6042,0.6358,0.6119,0.6062,0.738,0.4066,0.7209780812263489,0.6246488690376282,1.8294,0.604,0.5826,0.6145,0.6147,0.7645
262,0.6587,0.4336,0.6553,0.697,0.8237,0.5748,0.7044,0.5858,0.5724,0.744,0.6109,0.4388,0.6355,0.6621,0.7682,0.5655,0.7191,0.5817,0.5584,0.7182,0.6004,0.645,0.6106,0.6057,0.7241,0.4068,0.7204586267471313,0.6255685687065125,1.8363,0.6021,0.5882,0.6138,0.6191,0.7556
263,0.6605,0.4304,0.656,0.6937,0.8284,0.5729,0.7067,0.5856,0.5702,0.7435,0.6148,0.4337,0.6369,0.6608,0.7757,0.5612,0.7191,0.5789,0.5516,0.7199,0.6028,0.6388,0.6112,0.6061,0.7323,0.4089,0.7223063111305237,0.6256104707717896,1.8433,0.6024,0.5857,0.6137,0.6165,0.76
264,0.6616,0.427,0.6563,0.6896,0.8328,0.5721,0.7048,0.5852,0.5693,0.7444,0.6194,0.4296,0.6382,0.6596,0.784,0.5627,0.7175,0.5806,0.5524,0.7207,0.6035,0.6362,0.6115,0.606,0.7359,0.3974,0.7209503650665283,0.6261491179466248,1.8501,0.6039,0.583,0.6144,0.6154,0.7636
265,0.6605,0.4318,0.6557,0.6934,0.8284,0.5725,0.7044,0.5859,0.5695,0.7449,0.6144,0.4365,0.6365,0.6617,0.7739,0.5616,0.7182,0.5793,0.5523,0.7205,0.6031,0.6395,0.6121,0.6066,0.732,0.4018,0.722040057182312,0.624375581741333,1.8569,0.6024,0.5861,0.6139,0.6167,0.7599
266,0.66,0.4313,0.6553,0.6925,0.8285,0.5738,0.7025,0.5873,0.5707,0.7458,0.6139,0.4363,0.6365,0.662,0.7729,0.5616,0.7182,0.5783,0.5527,0.7191,0.6034,0.6386,0.6121,0.6068,0.7324,0.4045,0.7172519564628601,0.6259556412696838,1.8638,0.6025,0.5854,0.6139,0.6169,0.7597
267,0.661,0.4274,0.6546,0.6792,0.8405,0.5715,0.6985,0.5898,0.5676,0.7494,0.6232,0.4316,0.6384,0.6597,0.7892,0.5595,0.7143,0.5798,0.548,0.7236,0.6056,0.6352,0.6137,0.6066,0.7423,0.4065,0.7210341691970825,0.6241042613983154,1.8707,0.6042,0.5814,0.6153,0.6122,0.769
268,0.6585,0.4336,0.6559,0.7005,0.8215,0.5726,0.7105,0.5824,0.5712,0.7401,0.6095,0.4379,0.6354,0.6623,0.7663,0.5661,0.7196,0.5835,0.5583,0.7194,0.601,0.6436,0.6109,0.6062,0.7251,0.4027,0.7189385294914246,0.6260374188423157,1.8775,0.6015,0.589,0.6136,0.6197,0.7545
269,0.6616,0.4245,0.6556,0.6821,0.8387,0.5716,0.6986,0.5874,0.568,0.7483,0.6227,0.4274,0.6388,0.6586,0.7902,0.5616,0.7151,0.579,0.5509,0.721,0.6064,0.6325,0.6135,0.6078,0.7426,0.4036,0.7211015820503235,0.6253151893615723,1.8843,0.6048,0.5796,0.6149,0.6135,0.7682
270,0.6607,0.4279,0.6552,0.6866,0.8338,0.5724,0.6988,0.5866,0.569,0.7474,0.6176,0.432,0.6372,0.6591,0.781,0.5608,0.7157,0.577,0.5516,0.7187,0.6036,0.6365,0.6118,0.6061,0.7357,0.4064,0.7204477787017822,0.626344621181488,1.8912,0.603,0.5822,0.6136,0.6145,0.7633
271,0.661,0.4269,0.6551,0.6841,0.8363,0.572,0.7002,0.5866,0.5687,0.7468,0.6193,0.4308,0.6376,0.6589,0.7839,0.5629,0.7148,0.5811,0.5528,0.7215,0.6035,0.6369,0.6119,0.6056,0.7366,0.4062,0.715875506401062,0.6276074647903442,1.8981,0.6037,0.5819,0.6145,0.614,0.765
272,0.6615,0.4272,0.6564,0.6912,0.8316,0.5736,0.7033,0.5857,0.5709,0.7449,0.6165,0.4302,0.6372,0.6591,0.7795,0.5644,0.7159,0.5815,0.5551,0.7201,0.6028,0.6384,0.6114,0.6062,0.7324,0.4029,0.7182589173316956,0.6252673268318176,1.905,0.6038,0.583,0.6144,0.6165,0.7617
273,0.6598,0.4302,0.6557,0.6946,0.8269,0.5743,0.7026,0.5859,0.5717,0.745,0.6125,0.4345,0.6363,0.6614,0.7716,0.5657,0.717,0.5818,0.5575,0.7191,0.6023,0.6398,0.6114,0.6064,0.7295,0.4008,0.7172900438308716,0.6265242099761963,1.9118,0.6029,0.5848,0.6142,0.6183,0.7584
274,0.6595,0.4331,0.6554,0.6953,0.826,0.5743,0.705,0.5862,0.5718,0.744,0.6117,0.4379,0.6356,0.662,0.7694,0.5663,0.717,0.5848,0.5577,0.7221,0.601,0.6429,0.6109,0.6052,0.7272,0.4015,0.7195392847061157,0.6259236931800842,1.9186,0.6026,0.5872,0.6146,0.6184,0.7577
275,0.66,0.4266,0.654,0.6807,0.8376,0.5722,0.6969,0.5889,0.5683,0.7488,0.6196,0.4309,0.6376,0.659,0.7843,0.5619,0.714,0.5797,0.5518,0.7207,0.6045,0.6356,0.6126,0.6062,0.7389,0.4092,0.7192310690879822,0.6268433928489685,1.9255,0.6036,0.5808,0.6146,0.6132,0.7661
276,0.6608,0.4266,0.6552,0.6857,0.8346,0.5734,0.6961,0.588,0.5697,0.7485,0.6175,0.4309,0.6375,0.6596,0.7806,0.5604,0.7155,0.5754,0.5515,0.7172,0.6048,0.6344,0.6125,0.6072,0.7374,0.4013,0.7188307642936707,0.6259915232658386,1.9323,0.6034,0.5807,0.6137,0.6147,0.7637
277,0.6606,0.4305,0.6554,0.6905,0.8307,0.5722,0.7054,0.5852,0.5695,0.7436,0.6151,0.4351,0.6362,0.66,0.7758,0.566,0.7159,0.5855,0.5569,0.7233,0.6021,0.6426,0.6117,0.6057,0.7301,0.4064,0.7178623676300049,0.6272124648094177,1.9392,0.6032,0.5859,0.6148,0.6165,0.7607
278,0.6608,0.4266,0.6549,0.6834,0.8365,0.5718,0.7007,0.5875,0.5683,0.7466,0.6191,0.4306,0.6376,0.659,0.7835,0.5624,0.7144,0.581,0.5525,0.7213,0.6036,0.6372,0.612,0.6058,0.7362,0.3995,0.7211599946022034,0.6240044832229614,1.946,0.6035,0.5819,0.6146,0.6138,0.7648
279,0.661,0.4274,0.656,0.6905,0.8314,0.5727,0.7044,0.586,0.5697,0.7444,0.6161,0.4305,0.6373,0.6597,0.7786,0.5619,0.7167,0.579,0.5524,0.7184,0.6036,0.6358,0.6116,0.6065,0.735,0.4119,0.7187524437904358,0.6276673674583435,1.953,0.6031,0.583,0.614,0.6158,0.7616
280,0.6602,0.427,0.6544,0.6824,0.8365,0.5725,0.6981,0.5891,0.5686,0.7486,0.6182,0.4314,0.6375,0.6593,0.7819,0.5614,0.7152,0.578,0.552,0.72,0.6045,0.6347,0.6123,0.6064,0.7386,0.399,0.7214862704277039,0.6236354112625122,1.9598,0.6034,0.5813,0.6143,0.6137,0.7651
281,0.6602,0.4298,0.6553,0.691,0.8299,0.573,0.7057,0.5859,0.5702,0.7437,0.6142,0.4339,0.6363,0.6599,0.775,0.5652,0.7166,0.5834,0.5565,0.721,0.6026,0.6404,0.6118,0.6064,0.7307,0.4014,0.7175118923187256,0.6270110011100769,1.9666,0.603,0.5853,0.6145,0.6168,0.7601
282,0.66,0.4299,0.655,0.6894,0.8307,0.5737,0.703,0.5878,0.5705,0.7455,0.6136,0.4349,0.6362,0.6602,0.7738,0.5646,0.7165,0.582,0.5566,0.72,0.6028,0.6409,0.612,0.6067,0.7304,0.4054,0.7191293239593506,0.6239047050476074,1.9735,0.6029,0.585,0.6146,0.6167,0.7601
283,0.6596,0.4251,0.6536,0.6766,0.8409,0.5722,0.6965,0.5911,0.568,0.7501,0.6214,0.4293,0.638,0.6583,0.7877,0.5619,0.7133,0.5797,0.5518,0.7217,0.6047,0.6347,0.6127,0.6061,0.7404,0.4021,0.72041916847229,0.625438928604126,1.9803,0.604,0.5798,0.615,0.6122,0.7682
284,0.6608,0.428,0.6557,0.6902,0.8313,0.5723,0.7041,0.5851,0.5695,0.7443,0.6155,0.4322,0.6369,0.6602,0.777,0.5647,0.7162,0.5818,0.5567,0.7197,0.6026,0.6406,0.6118,0.6066,0.7301,0.4029,0.7222176194190979,0.6241540908813477,1.9871,0.6032,0.5842,0.6143,0.6166,0.7605
285,0.6607,0.4289,0.6548,0.6854,0.8348,0.5707,0.7053,0.585,0.5678,0.7442,0.6182,0.4331,0.637,0.6593,0.7814,0.5643,0.7152,0.5849,0.5539,0.724,0.6032,0.6402,0.6124,0.6056,0.7343,0.407,0.7198584675788879,0.6259556412696838,1.9941,0.6034,0.5845,0.6148,0.6144,0.7637
286,0.6596,0.4293,0.6543,0.687,0.8319,0.5738,0.7011,0.5887,0.5702,0.7471,0.6144,0.4344,0.6363,0.6601,0.7749,0.5645,0.7155,0.582,0.556,0.7208,0.6037,0.6396,0.6128,0.6073,0.7322,0.4009,0.7207976579666138,0.6249341368675232,2.0009,0.6032,0.584,0.6148,0.6161,0.7614
287,0.6593,0.4282,0.6552,0.6912,0.8286,0.5748,0.6994,0.5882,0.5713,0.7467,0.6119,0.433,0.6365,0.6607,0.7716,0.5639,0.7167,0.5774,0.5576,0.7163,0.6032,0.6379,0.612,0.6078,0.7302,0.4062,0.721656858921051,0.6255506277084351,2.0079,0.6026,0.583,0.6139,0.6177,0.7587
288,0.6588,0.4332,0.6548,0.6946,0.8255,0.5726,0.7058,0.5856,0.5698,0.7438,0.6093,0.439,0.6349,0.6617,0.7662,0.5653,0.7176,0.5831,0.558,0.7209,0.6021,0.6432,0.612,0.6069,0.7273,0.3972,0.7184393405914307,0.6252772808074951,2.0146,0.6016,0.5878,0.6141,0.6182,0.7567
289,0.6598,0.4239,0.654,0.6783,0.8396,0.5732,0.6953,0.5925,0.5686,0.7503,0.6201,0.428,0.638,0.6582,0.786,0.5617,0.7132,0.5775,0.5522,0.7197,0.6062,0.6332,0.6135,0.608,0.7412,0.4021,0.7188466191291809,0.6254708170890808,2.0214,0.6042,0.5787,0.6151,0.6131,0.7674
290,0.6601,0.4256,0.6541,0.6795,0.8389,0.5728,0.6954,0.591,0.5685,0.75,0.6194,0.4304,0.6377,0.6591,0.7839,0.5609,0.7138,0.5773,0.5514,0.7202,0.6053,0.6335,0.6129,0.6069,0.7404,0.4074,0.7191044092178345,0.624206006526947,2.0284,0.6037,0.5797,0.6146,0.6131,0.7667
291,0.6608,0.428,0.6556,0.6898,0.8316,0.5728,0.7036,0.5862,0.5698,0.7449,0.615,0.4325,0.6366,0.6596,0.7767,0.5648,0.7149,0.5827,0.5559,0.7204,0.6029,0.6398,0.6119,0.6065,0.7313,0.4035,0.7179346680641174,0.6267635822296143,2.0352,0.6033,0.5838,0.6146,0.6163,0.761
292,0.6601,0.4263,0.6554,0.6899,0.8305,0.5749,0.6982,0.5885,0.5713,0.7476,0.6142,0.4309,0.6368,0.6596,0.7759,0.5639,0.7143,0.578,0.5563,0.7174,0.6036,0.6373,0.612,0.6077,0.7315,0.4007,0.7164233922958374,0.6251676082611084,2.042,0.6033,0.5814,0.6141,0.617,0.7606
293,0.6601,0.428,0.6546,0.6861,0.8334,0.5729,0.699,0.5877,0.5694,0.7476,0.6154,0.4334,0.6365,0.6598,0.7766,0.5631,0.714,0.5802,0.5547,0.7191,0.604,0.6385,0.6129,0.6074,0.7332,0.4028,0.719153881072998,0.6270947456359863,2.0489,0.6031,0.5826,0.6144,0.6155,0.762
294,0.6603,0.4271,0.6551,0.6874,0.8328,0.5732,0.7001,0.588,0.5697,0.7471,0.615,0.4319,0.6369,0.6602,0.7762,0.5633,0.7141,0.5798,0.5549,0.7193,0.6043,0.6373,0.613,0.6079,0.7334,0.4087,0.7197989225387573,0.6248403787612915,2.0558,0.6032,0.5821,0.6146,0.616,0.7618
295,0.6596,0.4273,0.6558,0.694,0.8271,0.5735,0.7013,0.5846,0.5709,0.7451,0.6121,0.4318,0.6369,0.6616,0.7715,0.5637,0.7155,0.5778,0.5569,0.7164,0.6031,0.6383,0.612,0.6081,0.729,0.4037,0.7148578763008118,0.6284334063529968,2.0627,0.6024,0.5828,0.6134,0.6183,0.7578
296,0.6598,0.4276,0.654,0.6822,0.8362,0.5729,0.7001,0.5881,0.5695,0.7473,0.6165,0.4325,0.6368,0.6598,0.7784,0.564,0.7134,0.5826,0.5549,0.7216,0.6036,0.6391,0.6127,0.6066,0.7337,0.4068,0.7207561731338501,0.6258798241615295,2.0696,0.6034,0.5825,0.6148,0.6146,0.7634
297,0.6593,0.4261,0.6532,0.6759,0.8413,0.5725,0.6981,0.5913,0.5684,0.7496,0.6205,0.4309,0.6375,0.6585,0.7856,0.5622,0.7117,0.5821,0.5516,0.724,0.6052,0.637,0.6138,0.6068,0.7396,0.4046,0.7205142974853516,0.6254090070724487,2.0764,0.6039,0.5808,0.6156,0.6122,0.768
298,0.6598,0.4267,0.654,0.6819,0.8365,0.5725,0.7018,0.5885,0.5689,0.747,0.6173,0.431,0.6372,0.6596,0.7801,0.5644,0.7133,0.5834,0.5547,0.7228,0.6044,0.6384,0.6131,0.6072,0.7352,0.3993,0.7171798944473267,0.6251236796379089,2.0832,0.6037,0.5822,0.6152,0.6145,0.7643
299,0.659,0.4314,0.6549,0.6938,0.8263,0.5721,0.7075,0.584,0.5697,0.7429,0.6107,0.4366,0.6356,0.6621,0.7681,0.566,0.7158,0.584,0.5591,0.72,0.6017,0.6444,0.6118,0.607,0.7257,0.4056,0.716873288154602,0.6265002489089966,2.0901,0.6019,0.5871,0.6141,0.6183,0.7566
300,0.6579,0.4315,0.6545,0.6943,0.8246,0.5733,0.7033,0.5849,0.5707,0.7444,0.6072,0.4375,0.6348,0.662,0.7633,0.5666,0.7164,0.582,0.5615,0.7182,0.601,0.6434,0.6113,0.6066,0.7242,0.4026,0.7206831574440002,0.6241461038589478,2.097,0.6012,0.5864,0.6135,0.619,0.7549
301,0.6582,0.4298,0.6545,0.6926,0.8261,0.5731,0.7047,0.5846,0.5707,0.7435,0.6097,0.4349,0.6357,0.661,0.7679,0.5648,0.716,0.5802,0.5587,0.7168,0.6023,0.6402,0.6118,0.6074,0.7274,0.4046,0.7176619172096252,0.6267256736755371,2.1038,0.6016,0.5851,0.6134,0.6181,0.7563
302,0.659,0.4267,0.6538,0.6833,0.8341,0.5737,0.6956,0.5892,0.5697,0.7489,0.6139,0.4325,0.6366,0.6599,0.7748,0.563,0.7139,0.5767,0.5562,0.7182,0.605,0.6355,0.6133,0.6085,0.7345,0.4121,0.7179396748542786,0.6258040070533752,2.1108,0.6029,0.5808,0.6139,0.6155,0.7621
303,0.6615,0.4241,0.6555,0.6828,0.8382,0.571,0.7019,0.585,0.5679,0.7461,0.62,0.4276,0.6383,0.6589,0.7855,0.5642,0.713,0.5821,0.5541,0.7245,0.6046,0.6343,0.6125,0.6068,0.7376,0.3988,0.7166696786880493,0.6276434063911438,2.1176,0.6043,0.5802,0.6147,0.6141,0.7664
304,0.6601,0.4257,0.6546,0.6838,0.8354,0.5714,0.7017,0.5854,0.5683,0.7456,0.617,0.4301,0.6376,0.6599,0.7799,0.5643,0.7131,0.5812,0.5558,0.721,0.6044,0.6372,0.6131,0.6078,0.734,0.4029,0.7173397541046143,0.6260653138160706,2.1245,0.6034,0.5816,0.6144,0.6151,0.7632
305,0.6576,0.4231,0.6521,0.6684,0.8469,0.5712,0.6982,0.5925,0.5669,0.7504,0.6243,0.427,0.6385,0.6569,0.7937,0.5611,0.7104,0.5818,0.5495,0.726,0.606,0.6326,0.6139,0.6063,0.7455,0.413,0.7181829214096069,0.6252513527870178,2.1315,0.604,0.5783,0.6158,0.6096,0.7725
306,0.6595,0.4272,0.6543,0.6859,0.8329,0.572,0.7024,0.5864,0.5687,0.7457,0.614,0.432,0.6366,0.6603,0.7746,0.5623,0.7138,0.5788,0.5545,0.7185,0.6045,0.6385,0.6133,0.6084,0.7326,0.4042,0.7165378332138062,0.6279965043067932,2.1383,0.6025,0.5828,0.6139,0.6156,0.7609
307,0.6595,0.4254,0.6547,0.6871,0.8318,0.5723,0.6998,0.5859,0.5689,0.7462,0.6135,0.4297,0.637,0.66,0.7746,0.5641,0.7139,0.5774,0.5577,0.7153,0.6044,0.6369,0.6128,0.6088,0.732,0.4004,0.7123394012451172,0.626907229423523,2.1451,0.6028,0.5811,0.6136,0.6165,0.76
308,0.6598,0.4229,0.6542,0.6796,0.8383,0.5714,0.7005,0.586,0.568,0.7462,0.6193,0.426,0.6385,0.6589,0.7847,0.5638,0.7138,0.5796,0.5547,0.7213,0.6044,0.6328,0.612,0.6067,0.738,0.4042,0.7220595479011536,0.6255565881729126,2.152,0.6037,0.5792,0.6141,0.6136,0.7657
309,0.6597,0.4246,0.6543,0.6825,0.8357,0.5729,0.6958,0.5876,0.5691,0.7479,0.6156,0.4294,0.6374,0.6592,0.7784,0.5642,0.7126,0.5776,0.5576,0.7176,0.6046,0.6366,0.613,0.6085,0.7331,0.5456,0.7154356837272644,0.6265621185302734,2.1612,0.6034,0.5798,0.614,0.6154,0.7625
310,0.6608,0.4249,0.6552,0.685,0.8354,0.5714,0.7,0.585,0.5681,0.7462,0.6164,0.4289,0.6378,0.66,0.7793,0.5651,0.7133,0.5802,0.5574,0.7213,0.6045,0.6358,0.6128,0.6079,0.7344,0.6054,0.7157399654388428,0.6276374459266663,2.1714,0.6036,0.5806,0.6142,0.6157,0.7633
311,0.657,0.4211,0.6517,0.6673,0.8468,0.5726,0.6941,0.5947,0.5678,0.7517,0.6233,0.4251,0.6384,0.6562,0.7928,0.5628,0.7098,0.5803,0.5527,0.725,0.605,0.6323,0.6128,0.6057,0.7427,0.4987,0.7162122130393982,0.6271246671676636,2.1798,0.6041,0.5765,0.6156,0.6099,0.7718
312,0.6583,0.4236,0.6525,0.6726,0.8432,0.5737,0.693,0.5954,0.5687,0.7519,0.6202,0.4284,0.6381,0.6589,0.7855,0.5622,0.7105,0.5783,0.5531,0.7231,0.6053,0.6331,0.6132,0.6068,0.7405,0.4547,0.7189593315124512,0.625893771648407,2.1876,0.6039,0.5777,0.6155,0.612,0.7688
313,0.6594,0.4271,0.6544,0.6867,0.8321,0.5712,0.7022,0.5847,0.5681,0.7453,0.6131,0.4318,0.6365,0.6602,0.7736,0.5654,0.7137,0.5813,0.5578,0.7206,0.6042,0.6374,0.6128,0.608,0.7326,0.4356,0.7161651849746704,0.6299975514411926,2.1949,0.6027,0.5824,0.6139,0.6162,0.7608
314,0.6588,0.4275,0.6544,0.6888,0.8298,0.5718,0.7026,0.5842,0.5689,0.7447,0.6118,0.4322,0.6365,0.6607,0.7714,0.5657,0.7144,0.5807,0.5589,0.7183,0.6039,0.6378,0.6127,0.6085,0.7308,0.4275,0.7170621752738953,0.6264823079109192,2.2022,0.6024,0.5829,0.6137,0.6172,0.759
315,0.6592,0.4275,0.6545,0.6879,0.8309,0.5721,0.6997,0.5852,0.5689,0.7458,0.6111,0.4329,0.636,0.6604,0.7704,0.5673,0.7134,0.5817,0.5616,0.718,0.6038,0.6396,0.613,0.6086,0.7297,0.4167,0.7192648649215698,0.6250398755073547,2.2093,0.6027,0.5826,0.6141,0.6175,0.759
316,0.659,0.4254,0.6534,0.679,0.838,0.5735,0.6968,0.5902,0.5693,0.7486,0.6154,0.4306,0.6371,0.6596,0.7776,0.5642,0.7125,0.5796,0.5563,0.7217,0.6044,0.6364,0.6129,0.6073,0.7353,0.4198,0.7190443873405457,0.6251217126846313,2.2164,0.6033,0.5803,0.6146,0.6143,0.7642
317,0.6583,0.4284,0.6535,0.6858,0.8312,0.5722,0.7006,0.5862,0.5688,0.746,0.6103,0.4342,0.6358,0.6609,0.7687,0.5674,0.7139,0.5824,0.5617,0.7193,0.6034,0.6406,0.613,0.6079,0.7296,0.4036,0.7204313278198242,0.6253970265388489,2.2233,0.6023,0.5835,0.6142,0.617,0.759
318,0.6545,0.4322,0.6532,0.6955,0.8193,0.5744,0.7022,0.5855,0.5716,0.7441,0.6008,0.4395,0.6333,0.662,0.7543,0.5702,0.7156,0.5825,0.5694,0.7155,0.601,0.6462,0.6121,0.6091,0.7191,0.411,0.7164537310600281,0.6256443858146667,2.2303,0.6002,0.5871,0.6133,0.6215,0.7505
319,0.656,0.4307,0.6536,0.6938,0.8224,0.5732,0.7067,0.5835,0.5713,0.742,0.6048,0.4365,0.6345,0.6617,0.7603,0.5717,0.716,0.5865,0.569,0.718,0.601,0.6452,0.6118,0.6079,0.7214,0.4079,0.715970516204834,0.6277990341186523,2.2372,0.6013,0.587,0.614,0.6207,0.7528
320,0.6585,0.4248,0.6545,0.6888,0.8293,0.5721,0.7001,0.5841,0.5691,0.7449,0.6116,0.4291,0.6374,0.6611,0.7716,0.5684,0.7141,0.5808,0.5625,0.7176,0.6046,0.6355,0.6128,0.6097,0.7307,0.4079,0.7199838757514954,0.6240643262863159,2.2441,0.603,0.5807,0.6139,0.6182,0.7588
321,0.6589,0.4226,0.6535,0.6776,0.839,0.5736,0.6916,0.5919,0.5689,0.7503,0.616,0.4277,0.638,0.66,0.7789,0.5661,0.7116,0.5778,0.5598,0.7188,0.6048,0.6329,0.6126,0.6079,0.7358,0.4041,0.7178906798362732,0.6270748376846313,2.251,0.6039,0.5773,0.6148,0.6148,0.7646
322,0.6562,0.4316,0.6532,0.6923,0.8235,0.5734,0.6996,0.586,0.5702,0.7455,0.6035,0.4392,0.6339,0.6619,0.7579,0.5709,0.7144,0.5839,0.5687,0.7169,0.6019,0.6435,0.6124,0.6083,0.7235,0.4121,0.7177433371543884,0.6265261769294739,2.258,0.6012,0.5857,0.6139,0.6203,0.7535
323,0.6553,0.4335,0.6529,0.6938,0.8213,0.5742,0.7051,0.5859,0.5717,0.7431,0.6012,0.4405,0.6332,0.6619,0.7546,0.5712,0.7161,0.5873,0.5686,0.7188,0.6006,0.6466,0.6119,0.6075,0.7205,0.4048,0.7158105969429016,0.6259356737136841,2.2649,0.6005,0.5884,0.6142,0.6207,0.7517
324,0.6581,0.4224,0.6525,0.6701,0.8458,0.5711,0.6966,0.5919,0.5667,0.7501,0.6207,0.4267,0.6382,0.6579,0.7873,0.565,0.7094,0.5844,0.5543,0.7272,0.6054,0.6332,0.6134,0.6065,0.7417,0.4083,0.7163807153701782,0.6279506087303162,2.2718,0.6041,0.5777,0.6161,0.6111,0.7704
325,0.6577,0.4283,0.6532,0.6859,0.8304,0.5742,0.6974,0.5895,0.5702,0.7475,0.6071,0.4349,0.6352,0.6612,0.764,0.5685,0.7126,0.5824,0.5639,0.7202,0.6022,0.6408,0.6121,0.6072,0.7272,0.4064,0.7179255485534668,0.6246069669723511,2.2787,0.6019,0.5828,0.6145,0.6177,0.7579
326,0.6585,0.4286,0.6539,0.6875,0.8303,0.5731,0.7037,0.5863,0.5701,0.7448,0.6088,0.4339,0.6358,0.6616,0.7661,0.5696,0.7137,0.5863,0.5632,0.722,0.6025,0.6406,0.6122,0.6072,0.7283,0.4038,0.7179962396621704,0.6280065178871155,2.2856,0.6025,0.5841,0.6149,0.6179,0.7583
327,0.6548,0.4301,0.6533,0.6946,0.8204,0.5756,0.7016,0.5867,0.5726,0.7447,0.6007,0.4367,0.6336,0.6615,0.7549,0.5721,0.7143,0.5843,0.5701,0.717,0.6021,0.6433,0.6125,0.6098,0.7213,0.4042,0.7166173458099365,0.6246628165245056,2.2925,0.6011,0.5852,0.6141,0.6217,0.7517
328,0.6587,0.4257,0.6533,0.6811,0.8357,0.5732,0.6976,0.5897,0.569,0.7485,0.6124,0.4314,0.6366,0.6604,0.7726,0.5693,0.7115,0.5846,0.5625,0.7233,0.6043,0.6367,0.6131,0.608,0.7332,0.4019,0.7159669995307922,0.6277750730514526,2.2993,0.6036,0.5806,0.6155,0.6162,0.7627
329,0.6595,0.4258,0.6546,0.6868,0.8322,0.5741,0.7016,0.5883,0.5705,0.7463,0.6107,0.4307,0.6365,0.6606,0.7702,0.5719,0.712,0.587,0.5658,0.7236,0.6033,0.6384,0.6124,0.608,0.7295,0.4012,0.7177284359931946,0.6260334253311157,2.3061,0.6039,0.5817,0.6158,0.6183,0.7604
330,0.6537,0.4322,0.6529,0.6958,0.8181,0.5751,0.7066,0.5857,0.5729,0.7423,0.5984,0.4389,0.6328,0.6616,0.7515,0.573,0.7158,0.5873,0.572,0.7183,0.601,0.6458,0.6123,0.6093,0.7185,0.4014,0.715059220790863,0.6263645887374878,2.3129,0.6002,0.5879,0.6142,0.6223,0.7497
331,0.6589,0.4277,0.654,0.6866,0.8315,0.5735,0.7028,0.5873,0.5702,0.7456,0.6089,0.4332,0.6358,0.6613,0.7666,0.5702,0.7132,0.586,0.5648,0.7222,0.6027,0.6398,0.6124,0.6074,0.7285,0.4008,0.7140887975692749,0.6285591125488281,2.3197,0.6028,0.5833,0.6151,0.6181,0.7589
332,0.6563,0.4281,0.6528,0.6877,0.827,0.5745,0.7032,0.587,0.5715,0.7448,0.6061,0.4336,0.6354,0.6618,0.7625,0.5706,0.7141,0.585,0.5668,0.7199,0.6023,0.6407,0.6122,0.6081,0.7255,0.4103,0.7153074741363525,0.6270708441734314,2.3267,0.602,0.5839,0.6145,0.6192,0.7559
333,0.6581,0.4259,0.6538,0.6867,0.8304,0.575,0.7,0.5886,0.5713,0.7465,0.6086,0.4312,0.6364,0.6618,0.7664,0.5709,0.7129,0.5843,0.5663,0.7209,0.6032,0.638,0.6123,0.6086,0.728,0.4003,0.7165392637252808,0.62668377161026,2.3335,0.6032,0.5816,0.6151,0.6189,0.7584
334,0.6583,0.4241,0.6525,0.6727,0.8432,0.5703,0.6954,0.5896,0.5662,0.7503,0.6171,0.4299,0.6375,0.6598,0.7799,0.5684,0.7093,0.5849,0.5605,0.7266,0.6044,0.6363,0.6132,0.6066,0.7367,0.4058,0.7187023758888245,0.625450849533081,2.3404,0.6037,0.579,0.6155,0.6132,0.7673
335,0.6591,0.4242,0.6538,0.6822,0.8353,0.5745,0.6978,0.5896,0.5704,0.7479,0.612,0.4295,0.6366,0.6597,0.7726,0.5704,0.7108,0.5835,0.5657,0.7224,0.6027,0.6385,0.6119,0.6074,0.7287,0.404,0.7139562964439392,0.6284134984016418,2.3473,0.6037,0.5802,0.6151,0.6171,0.7614
336,0.6569,0.4201,0.6517,0.6671,0.8472,0.57,0.6947,0.5898,0.5657,0.7503,0.6213,0.424,0.6387,0.6579,0.7887,0.5665,0.7084,0.5834,0.557,0.7261,0.6053,0.6318,0.613,0.6068,0.7411,0.4051,0.7153955698013306,0.6283097267150879,2.3542,0.604,0.5758,0.6153,0.6109,0.7707
337,0.6545,0.4305,0.6527,0.6929,0.821,0.5751,0.7023,0.5865,0.5721,0.7449,0.6009,0.4373,0.6338,0.6621,0.7549,0.574,0.7141,0.5865,0.573,0.7178,0.6017,0.644,0.6125,0.6099,0.7202,0.4057,0.7177292108535767,0.6270887851715088,2.3611,0.6012,0.5856,0.6144,0.622,0.7518
338,0.6578,0.4277,0.6536,0.6878,0.8291,0.5744,0.7,0.5875,0.571,0.7464,0.6072,0.4336,0.6353,0.661,0.7644,0.5729,0.7123,0.5864,0.5695,0.7209,0.6027,0.6408,0.6126,0.6086,0.7257,0.4078,0.7168169617652893,0.6259117126464844,2.368,0.603,0.5829,0.6151,0.6196,0.7573
339,0.6551,0.4281,0.6527,0.6898,0.8239,0.5755,0.6988,0.5871,0.5722,0.7455,0.602,0.4348,0.6344,0.6618,0.7568,0.5738,0.7133,0.5854,0.5733,0.7176,0.6019,0.6432,0.6125,0.61,0.7204,0.4023,0.7145848870277405,0.627743124961853,2.3748,0.6017,0.5836,0.6144,0.6214,0.7528
340,0.657,0.4278,0.6528,0.686,0.8293,0.5737,0.7038,0.5862,0.5708,0.7439,0.6064,0.4336,0.635,0.6607,0.7633,0.574,0.7128,0.5897,0.5708,0.7208,0.6014,0.6435,0.6119,0.6075,0.7234,0.4009,0.7154999375343323,0.6277411580085754,2.3817,0.6025,0.5843,0.6151,0.6192,0.7561
341,0.6559,0.4264,0.6526,0.6867,0.8273,0.5759,0.7,0.5886,0.5724,0.7463,0.6055,0.4318,0.6357,0.6615,0.7622,0.5736,0.7124,0.5866,0.5709,0.7198,0.6024,0.6409,0.6123,0.6092,0.7236,0.4011,0.7147933840751648,0.62668776512146,2.3886,0.6027,0.5823,0.6152,0.6201,0.7558
342,0.6585,0.4254,0.6528,0.6775,0.8387,0.5719,0.6979,0.5893,0.5678,0.7488,0.6124,0.4313,0.6363,0.6598,0.7728,0.5725,0.7094,0.5887,0.5661,0.726,0.6035,0.639,0.6128,0.6072,0.7315,0.4027,0.7155068516731262,0.6263566017150879,2.3954,0.6038,0.5806,0.616,0.6157,0.7636
343,0.6567,0.4289,0.6521,0.6835,0.8307,0.575,0.6991,0.5905,0.5709,0.7477,0.6056,0.4364,0.6344,0.6608,0.7618,0.5744,0.7111,0.5895,0.5719,0.7227,0.6016,0.6448,0.6124,0.6078,0.723,0.4042,0.7158871293067932,0.627068817615509,2.4023,0.6027,0.5841,0.6158,0.619,0.7572
344,0.6577,0.4263,0.6531,0.6844,0.8316,0.5742,0.7016,0.5874,0.5709,0.7458,0.6081,0.4321,0.6356,0.6606,0.7661,0.5757,0.7117,0.5905,0.5718,0.7244,0.6025,0.641,0.6123,0.6083,0.7256,0.4038,0.7157961130142212,0.6273561120033264,2.4091,0.6036,0.5825,0.6158,0.6192,0.7587
345,0.6574,0.4259,0.6528,0.683,0.8322,0.5752,0.6977,0.5906,0.5709,0.7479,0.6071,0.4319,0.6357,0.6607,0.7648,0.5737,0.7114,0.5872,0.5701,0.7229,0.6031,0.6395,0.6125,0.6089,0.7265,0.403,0.7160681486129761,0.6260892748832703,2.416,0.6033,0.5813,0.6158,0.6187,0.7589
346,0.6575,0.4258,0.6519,0.6759,0.8386,0.5727,0.6983,0.5907,0.5685,0.7488,0.6103,0.4318,0.6358,0.6598,0.7697,0.5724,0.7101,0.5888,0.5666,0.7257,0.6027,0.6398,0.6123,0.6067,0.7298,0.4015,0.7143981456756592,0.6289281845092773,2.4228,0.6031,0.5812,0.6159,0.6155,0.7625
347,0.6548,0.4264,0.6521,0.6866,0.8258,0.5756,0.6979,0.5883,0.5719,0.7462,0.6021,0.4326,0.6348,0.6611,0.7576,0.5756,0.7117,0.5871,0.5749,0.7193,0.6022,0.643,0.6126,0.6106,0.7203,0.4036,0.7175619006156921,0.6262568831443787,2.4297,0.6021,0.5823,0.615,0.621,0.7538
348,0.6571,0.4258,0.6523,0.6811,0.8333,0.5748,0.7021,0.589,0.5713,0.746,0.6086,0.4313,0.6358,0.6605,0.7668,0.578,0.7101,0.5943,0.5744,0.7255,0.6015,0.6441,0.6122,0.6077,0.7233,0.4054,0.7108246684074402,0.6314957737922668,2.4366,0.604,0.5827,0.6167,0.619,0.759
349,0.6572,0.4242,0.6527,0.6824,0.8324,0.5756,0.6958,0.5904,0.5715,0.7484,0.6072,0.4298,0.6361,0.6607,0.7652,0.5752,0.71,0.5877,0.5721,0.7227,0.603,0.6391,0.6126,0.6092,0.7256,0.8745,0.7129321694374084,0.6283795833587646,2.4513,0.6036,0.5798,0.6159,0.6192,0.7589
350,0.6576,0.4256,0.652,0.6763,0.8384,0.5726,0.6967,0.5893,0.5685,0.749,0.6101,0.4321,0.6358,0.6601,0.7691,0.5742,0.7092,0.5901,0.5695,0.7256,0.6022,0.6412,0.6124,0.6067,0.7277,0.6635,0.7159227728843689,0.6273820400238037,2.4625,0.6033,0.581,0.6159,0.6162,0.762
351,0.6571,0.4235,0.6518,0.6759,0.838,0.5735,0.6953,0.5907,0.5692,0.7497,0.6108,0.4291,0.6366,0.6601,0.7706,0.5727,0.7088,0.587,0.5677,0.7251,0.603,0.6374,0.6123,0.6075,0.7294,0.5558,0.7146315574645996,0.628690779209137,2.4719,0.6034,0.5788,0.6157,0.6161,0.7626
352,0.6541,0.4278,0.652,0.6893,0.8228,0.5761,0.7002,0.5875,0.5729,0.7455,0.6011,0.4341,0.6344,0.6618,0.7557,0.577,0.712,0.5888,0.5765,0.7195,0.6025,0.642,0.6129,0.611,0.7204,0.5009,0.7159868478775024,0.6273441314697266,2.4804,0.6022,0.5832,0.6151,0.6223,0.7528
353,0.6583,0.4227,0.6526,0.6733,0.8427,0.5688,0.6963,0.5874,0.5648,0.7493,0.6151,0.4277,0.6374,0.6593,0.7777,0.575,0.7075,0.5916,0.5671,0.7299,0.6041,0.6354,0.6127,0.607,0.7347,0.4716,0.7165684103965759,0.6276893019676208,2.4883,0.6043,0.5779,0.6163,0.6143,0.7669
354,0.655,0.4288,0.6514,0.6847,0.8273,0.5756,0.7027,0.5891,0.5721,0.7464,0.6027,0.4349,0.6345,0.6616,0.7577,0.5772,0.7123,0.5916,0.5751,0.7219,0.6018,0.6432,0.6124,0.6088,0.7223,0.4584,0.717937707901001,0.6253132224082947,2.4961,0.6025,0.5844,0.6158,0.6205,0.7551
355,0.6558,0.4266,0.6517,0.6824,0.8303,0.5748,0.699,0.59,0.5707,0.7475,0.6053,0.4324,0.6352,0.6611,0.7619,0.5766,0.7099,0.5908,0.5729,0.7251,0.6024,0.6412,0.6124,0.6086,0.7247,0.4437,0.7167065143585205,0.6282179951667786,2.5036,0.603,0.5818,0.616,0.6191,0.7579
356,0.6569,0.4254,0.6517,0.6778,0.836,0.5734,0.7028,0.5886,0.5698,0.7464,0.6091,0.4304,0.636,0.6598,0.7682,0.5766,0.7107,0.5932,0.5717,0.7266,0.6017,0.6404,0.6116,0.6065,0.7269,0.4207,0.7151271104812622,0.6270329356193542,2.5108,0.6035,0.5819,0.6162,0.6171,0.7608
357,0.6558,0.4257,0.6513,0.6796,0.8325,0.5748,0.6963,0.5908,0.5705,0.7486,0.6051,0.4322,0.635,0.6601,0.7621,0.5762,0.7099,0.5889,0.5744,0.7223,0.6021,0.6405,0.6122,0.6083,0.7244,0.4151,0.7164676785469055,0.6265860199928284,2.5179,0.6028,0.5809,0.6156,0.6186,0.758
358,0.6564,0.4271,0.651,0.6763,0.8365,0.5716,0.7005,0.5881,0.5679,0.7475,0.6086,0.4335,0.6354,0.6605,0.7665,0.5766,0.7091,0.5941,0.5722,0.7277,0.6017,0.6429,0.6123,0.6067,0.7259,0.4177,0.7143296003341675,0.6287686228752136,2.525,0.603,0.5826,0.6162,0.6167,0.7608
359,0.6558,0.4259,0.6505,0.6745,0.8373,0.5727,0.6931,0.5915,0.5683,0.751,0.6081,0.4333,0.6353,0.6601,0.7661,0.5737,0.7077,0.588,0.5701,0.7247,0.602,0.6396,0.612,0.6066,0.7273,0.412,0.7155690789222717,0.6274997591972351,2.532,0.6025,0.5799,0.6155,0.6159,0.7613
360,0.655,0.4258,0.6521,0.6871,0.8257,0.5756,0.703,0.5869,0.5727,0.7447,0.6044,0.4313,0.6353,0.661,0.7609,0.579,0.7103,0.5926,0.5775,0.7229,0.6024,0.6421,0.6129,0.6108,0.7206,0.413,0.7142016291618347,0.6277331709861755,2.539,0.6033,0.5825,0.616,0.6218,0.755
361,0.6536,0.4297,0.6525,0.6936,0.8194,0.5759,0.7057,0.5857,0.5739,0.7423,0.5974,0.4364,0.6333,0.6618,0.7504,0.577,0.7132,0.5904,0.5769,0.7184,0.6024,0.6442,0.6134,0.6123,0.7176,0.4047,0.7134279608726501,0.6275237202644348,2.5459,0.6013,0.5858,0.6151,0.6237,0.7496
362,0.6558,0.4247,0.6504,0.6726,0.8391,0.5722,0.6916,0.5922,0.5676,0.7516,0.6089,0.4322,0.6357,0.6603,0.7673,0.5752,0.7068,0.5894,0.5708,0.7266,0.6028,0.6385,0.6125,0.6071,0.7292,0.4137,0.7133803367614746,0.6304543614387512,2.5529,0.603,0.5788,0.616,0.6157,0.7628
363,0.6562,0.4188,0.6515,0.6638,0.8509,0.5683,0.6905,0.5915,0.564,0.7529,0.6202,0.4242,0.6383,0.6578,0.7868,0.5745,0.7035,0.5921,0.5646,0.7337,0.6066,0.6315,0.6145,0.6084,0.7408,0.405,0.7118051648139954,0.6303067803382874,2.5598,0.6052,0.5737,0.6176,0.6117,0.773
364,0.6569,0.4261,0.6522,0.682,0.8324,0.5719,0.6985,0.5862,0.5683,0.7472,0.6065,0.4327,0.6354,0.6616,0.7631,0.5789,0.7083,0.5931,0.5752,0.7273,0.6034,0.64,0.6133,0.6095,0.7262,0.4005,0.7121607065200806,0.6292034983634949,2.5667,0.6035,0.5811,0.616,0.6193,0.7592
365,0.6576,0.4231,0.6519,0.6728,0.842,0.5694,0.6968,0.5874,0.5655,0.7488,0.6122,0.4287,0.6366,0.6597,0.7729,0.5757,0.7073,0.592,0.5688,0.7288,0.6041,0.6358,0.613,0.6076,0.7332,0.406,0.7104880213737488,0.6304583549499512,2.5736,0.6038,0.5783,0.6162,0.6149,0.7651
366,0.6586,0.4221,0.6528,0.6737,0.8426,0.5692,0.6954,0.5866,0.5653,0.7491,0.6135,0.428,0.6368,0.6593,0.7751,0.5772,0.7054,0.5931,0.5707,0.7308,0.6046,0.6374,0.6138,0.6087,0.732,0.4018,0.7134616374969482,0.6274498701095581,2.5804,0.6046,0.5777,0.6166,0.6155,0.7659
367,0.6572,0.4235,0.6526,0.6819,0.8328,0.5728,0.6974,0.5866,0.5692,0.747,0.6068,0.4292,0.636,0.6612,0.7643,0.5793,0.7077,0.5922,0.5764,0.7263,0.6038,0.6396,0.6134,0.6109,0.7246,0.4041,0.7111525535583496,0.6301870346069336,2.5873,0.604,0.5795,0.6162,0.6199,0.759
368,0.6567,0.4249,0.6524,0.6835,0.8308,0.5729,0.7029,0.5853,0.5699,0.7444,0.6064,0.4301,0.636,0.6618,0.7634,0.5804,0.7092,0.5954,0.5767,0.7277,0.6031,0.6408,0.613,0.6102,0.7236,0.4095,0.7176562547683716,0.6255765557289124,2.5942,0.6039,0.5816,0.6164,0.6204,0.758
369,0.657,0.4251,0.6517,0.6776,0.8363,0.5713,0.6987,0.5866,0.5676,0.7474,0.6078,0.4313,0.6358,0.6612,0.7654,0.5782,0.7083,0.5934,0.5741,0.7278,0.6037,0.6402,0.6136,0.6095,0.7266,0.4042,0.7159483432769775,0.6281501650810242,2.6011,0.6036,0.5807,0.6162,0.618,0.7607
370,0.6578,0.4224,0.6522,0.6721,0.8432,0.5703,0.6917,0.5891,0.5661,0.7511,0.6115,0.4287,0.6369,0.6605,0.7716,0.5763,0.7063,0.5898,0.5712,0.7283,0.6053,0.6359,0.6141,0.6098,0.7319,0.4013,0.7177774906158447,0.6277571320533752,2.6079,0.6042,0.577,0.6164,0.6159,0.7652
371,0.655,0.4258,0.6512,0.6819,0.8295,0.5737,0.6944,0.5871,0.57,0.7478,0.6011,0.4329,0.6346,0.6616,0.7559,0.5781,0.709,0.5895,0.5784,0.7221,0.6031,0.6424,0.6139,0.6122,0.72,0.4042,0.7161056399345398,0.6270868182182312,2.6148,0.6022,0.5809,0.6153,0.6208,0.7551
372,0.655,0.4221,0.65,0.6645,0.8477,0.5723,0.6891,0.5971,0.5672,0.7539,0.6126,0.4286,0.637,0.6598,0.7737,0.5756,0.706,0.5907,0.5689,0.7298,0.6045,0.634,0.6132,0.6072,0.7357,0.402,0.7156583666801453,0.6269172430038452,2.6217,0.604,0.576,0.6176,0.6135,0.7682
373,0.6536,0.4297,0.6507,0.6848,0.8254,0.5753,0.6953,0.59,0.5712,0.7485,0.5956,0.4382,0.6325,0.6618,0.7478,0.5769,0.7101,0.5895,0.5776,0.7209,0.6025,0.6443,0.6137,0.6119,0.7184,0.4049,0.7136281132698059,0.6282100081443787,2.6286,0.6008,0.5835,0.6153,0.6215,0.7522
374,0.6561,0.4246,0.651,0.6754,0.8369,0.5712,0.6955,0.5879,0.5672,0.7487,0.6067,0.4311,0.6357,0.6611,0.7641,0.5793,0.708,0.5936,0.5747,0.7284,0.605,0.6378,0.6142,0.6109,0.7283,0.4006,0.7141997814178467,0.6312204599380493,2.6354,0.6037,0.5794,0.6165,0.6179,0.7613
375,0.6551,0.427,0.6509,0.6811,0.8304,0.5725,0.7003,0.5863,0.5693,0.746,0.6024,0.4337,0.6346,0.6621,0.7571,0.5791,0.7091,0.5943,0.5771,0.7254,0.6022,0.643,0.613,0.61,0.7211,0.4048,0.7106060981750488,0.6298678517341614,2.6423,0.6023,0.5826,0.6158,0.6199,0.756
376,0.6569,0.4224,0.6517,0.676,0.8376,0.571,0.6971,0.5866,0.5672,0.7474,0.6092,0.4278,0.6367,0.6607,0.7682,0.5811,0.7069,0.5956,0.5762,0.729,0.6042,0.6369,0.6134,0.6101,0.7278,0.4045,0.7145954966545105,0.6274718046188354,2.6491,0.6045,0.5782,0.6168,0.618,0.762
377,0.655,0.4295,0.6509,0.6822,0.8294,0.5724,0.7008,0.5856,0.5694,0.7454,0.6003,0.4372,0.6333,0.6613,0.754,0.5805,0.7092,0.5973,0.5803,0.7258,0.6013,0.6473,0.6132,0.6103,0.7171,0.4048,0.7139072418212891,0.6282239556312561,2.656,0.6019,0.5848,0.6161,0.6207,0.7543
378,0.6551,0.4263,0.6498,0.6724,0.8384,0.5726,0.6947,0.592,0.5681,0.7506,0.6067,0.4335,0.6352,0.6611,0.7635,0.5809,0.7061,0.5976,0.5769,0.7309,0.603,0.6413,0.6133,0.6088,0.7256,0.408,0.713947594165802,0.6284853219985962,2.6629,0.6037,0.5804,0.6176,0.6175,0.7618
379,0.6542,0.4301,0.6512,0.6867,0.8247,0.5737,0.7021,0.5852,0.5711,0.744,0.5972,0.4376,0.6327,0.6616,0.7497,0.583,0.71,0.5995,0.5842,0.7246,0.6017,0.6486,0.614,0.6127,0.7143,0.4044,0.714598536491394,0.6296224594116211,2.6698,0.602,0.5857,0.6165,0.6233,0.7515
380,0.6556,0.4262,0.6522,0.6862,0.8272,0.5728,0.6995,0.5845,0.5698,0.745,0.6017,0.4327,0.6349,0.6626,0.7564,0.5834,0.7084,0.5966,0.5822,0.7269,0.6031,0.6409,0.6135,0.6124,0.7197,0.3995,0.7141160368919373,0.6296244859695435,2.6767,0.6033,0.5815,0.6163,0.6226,0.755
381,0.6567,0.4227,0.6511,0.6709,0.8426,0.5698,0.6932,0.5883,0.5657,0.75,0.6111,0.4294,0.6366,0.6607,0.7707,0.579,0.7045,0.5951,0.573,0.7319,0.6053,0.6371,0.6146,0.6102,0.7305,0.4017,0.714030385017395,0.6293850541114807,2.6835,0.6044,0.5774,0.6171,0.6161,0.7651
382,0.6563,0.4215,0.6509,0.6687,0.8445,0.5708,0.6926,0.59,0.5666,0.751,0.6129,0.4278,0.637,0.6604,0.7735,0.5826,0.7032,0.5992,0.5766,0.734,0.6046,0.6383,0.6141,0.6094,0.7297,0.4057,0.7110031247138977,0.6312863230705261,2.6904,0.6054,0.5767,0.6182,0.6163,0.7665
383,0.6557,0.4276,0.6509,0.6792,0.8329,0.5711,0.7009,0.5845,0.5681,0.7451,0.6035,0.435,0.6343,0.6617,0.7583,0.5857,0.7072,0.6044,0.5845,0.7315,0.6014,0.6488,0.6135,0.6107,0.7165,0.402,0.716795802116394,0.627507746219635,2.6972,0.6035,0.5839,0.6175,0.6208,0.7569
384,0.656,0.4202,0.6511,0.674,0.8381,0.5723,0.6936,0.5885,0.5681,0.7489,0.6095,0.4254,0.6374,0.6614,0.7686,0.5836,0.7052,0.5957,0.5803,0.7276,0.6039,0.6355,0.613,0.6104,0.7264,0.4014,0.7118737101554871,0.6314618587493896,2.7041,0.6051,0.576,0.6171,0.6188,0.7619
385,0.6555,0.4202,0.6505,0.6649,0.8479,0.5705,0.6922,0.5917,0.566,0.7511,0.6147,0.4261,0.6378,0.6604,0.7766,0.5798,0.7036,0.5955,0.5735,0.7327,0.6052,0.6346,0.614,0.609,0.7335,0.402,0.7146061062812805,0.6278010010719299,2.7109,0.6051,0.5753,0.6179,0.6148,0.7684
386,0.6548,0.4191,0.65,0.6632,0.8488,0.5731,0.687,0.5971,0.5678,0.754,0.6143,0.4253,0.6379,0.6604,0.7762,0.5805,0.7028,0.5941,0.5754,0.7316,0.6048,0.6336,0.6135,0.6087,0.7331,0.4031,0.713210940361023,0.6284254789352417,2.7177,0.6055,0.5736,0.6185,0.6151,0.7687
387,0.6551,0.4228,0.6498,0.6688,0.8423,0.5722,0.6958,0.5901,0.568,0.7491,0.6091,0.4288,0.6365,0.6614,0.7672,0.5818,0.7062,0.5976,0.5773,0.7307,0.6032,0.6377,0.6129,0.6082,0.7281,0.4071,0.7117973566055298,0.6281262040138245,2.7247,0.6043,0.5783,0.6174,0.6167,0.7635
388,0.6541,0.4262,0.6501,0.6793,0.8304,0.5734,0.6934,0.5879,0.5695,0.7486,0.5994,0.4343,0.634,0.6623,0.7529,0.5832,0.7061,0.5957,0.5844,0.7254,0.6025,0.644,0.6137,0.6123,0.7176,0.4072,0.7134191989898682,0.630979061126709,2.7316,0.6025,0.5808,0.6163,0.6216,0.755
389,0.6537,0.4251,0.6498,0.6778,0.8309,0.5733,0.6936,0.5872,0.5695,0.7476,0.5992,0.4324,0.6343,0.662,0.7533,0.5826,0.7077,0.5944,0.5835,0.7241,0.6024,0.6415,0.6132,0.6116,0.7193,0.3992,0.7104855179786682,0.6296324133872986,2.7384,0.6022,0.5801,0.6158,0.6209,0.755
390,0.6556,0.4261,0.6515,0.6822,0.8302,0.5714,0.6998,0.5825,0.5689,0.7436,0.5994,0.4333,0.6344,0.6627,0.7529,0.5861,0.7089,0.5996,0.5868,0.7267,0.6027,0.6434,0.6138,0.6126,0.7177,0.4131,0.7108415961265564,0.630131185054779,2.7454,0.603,0.5823,0.6164,0.6226,0.7542
391,0.6549,0.4224,0.6498,0.6644,0.8476,0.5713,0.6919,0.5928,0.5668,0.7519,0.611,0.4292,0.6366,0.6609,0.7703,0.5825,0.7039,0.5993,0.5775,0.7336,0.6045,0.6385,0.6141,0.6092,0.7299,0.4009,0.7163510322570801,0.6278189420700073,2.7522,0.6048,0.5772,0.6185,0.6158,0.7667
392,0.6536,0.4294,0.6498,0.6805,0.8286,0.5717,0.6997,0.5847,0.5687,0.7449,0.5973,0.4376,0.6331,0.6629,0.7491,0.5843,0.7089,0.6004,0.5853,0.7257,0.6019,0.6465,0.6138,0.612,0.7162,0.406,0.7121021151542664,0.6317391991615295,2.7591,0.6018,0.5844,0.6164,0.6219,0.7529
393,0.6531,0.4253,0.6491,0.6755,0.8321,0.5755,0.6914,0.5916,0.5711,0.7499,0.6,0.4333,0.6343,0.6616,0.7542,0.5859,0.7063,0.5986,0.5872,0.7273,0.6024,0.6431,0.6135,0.6121,0.718,0.4088,0.7185715436935425,0.6239446401596069,2.7661,0.6034,0.5799,0.6174,0.6215,0.7563
394,0.6551,0.4247,0.6499,0.6716,0.8393,0.5707,0.6967,0.5859,0.5672,0.7471,0.6064,0.4316,0.6357,0.6618,0.763,0.586,0.7063,0.6025,0.5824,0.7335,0.6031,0.6404,0.6133,0.6098,0.724,0.4013,0.7111912965774536,0.6317611336708069,2.7729,0.6043,0.5799,0.6175,0.6186,0.7614
395,0.6541,0.4223,0.649,0.6662,0.8437,0.5727,0.6897,0.593,0.568,0.7521,0.6088,0.4298,0.6363,0.6613,0.7668,0.5865,0.7029,0.6013,0.5831,0.7338,0.6034,0.639,0.6133,0.6091,0.7264,0.4045,0.7128811478614807,0.6283496618270874,2.7798,0.6051,0.5767,0.6186,0.6175,0.7646
396,0.6559,0.4235,0.651,0.6759,0.8362,0.571,0.6964,0.5844,0.5678,0.7462,0.6047,0.4303,0.6358,0.6618,0.7609,0.5873,0.7061,0.601,0.5861,0.7314,0.6025,0.6407,0.613,0.611,0.7202,0.4119,0.7162454724311829,0.6262069940567017,2.7868,0.6043,0.5794,0.617,0.6205,0.759
397,0.6541,0.4251,0.6495,0.6744,0.8347,0.5724,0.6954,0.587,0.5687,0.7477,0.6014,0.4326,0.6345,0.6614,0.7564,0.5861,0.7067,0.5999,0.5855,0.7306,0.6025,0.6418,0.6131,0.611,0.7199,0.4025,0.7108893990516663,0.6309491395950317,2.7936,0.6033,0.5803,0.6168,0.6202,0.7579
398,0.6532,0.4274,0.6513,0.6875,0.823,0.5735,0.7008,0.5821,0.5717,0.7417,0.5949,0.4346,0.6333,0.6627,0.7471,0.59,0.7095,0.6034,0.5932,0.7273,0.6016,0.6467,0.6138,0.6146,0.7116,0.4023,0.7131726741790771,0.6292633414268494,2.8004,0.6026,0.5838,0.6168,0.6259,0.7501
399,0.6531,0.4237,0.6495,0.677,0.8308,0.5744,0.6933,0.5876,0.5707,0.7474,0.5998,0.4307,0.635,0.6624,0.7541,0.5887,0.7066,0.6004,0.5896,0.7282,0.6023,0.6412,0.613,0.6123,0.7178,0.4077,0.7117626070976257,0.6309252381324768,2.8074,0.6037,0.5791,0.6171,0.6224,0.7557
401,0.6845,0.392,0.6768,0.7024,0.8508,0.5638,0.6373,0.5656,0.5629,0.7603,0.6391,0.3879,0.6528,0.6741,0.8113,0.6404,0.6443,0.65,0.6389,0.772,0.6591,0.5757,0.6598,0.6917,0.7518,1.5739,0.6723688244819641,0.6627398133277893,0.0263,0.6374,0.5274,0.641,0.654,0.7892
402,0.676,0.4265,0.6765,0.7695,0.8116,0.5595,0.6675,0.5612,0.5624,0.7349,0.5843,0.4523,0.6445,0.6995,0.7285,0.6391,0.6631,0.6624,0.667,0.7601,0.6495,0.611,0.6583,0.7108,0.7206,0.6492,0.6543718576431274,0.6767129302024841,0.0372,0.6217,0.5641,0.6406,0.6818,0.7511
403,0.6927,0.4117,0.6813,0.7567,0.8326,0.5831,0.636,0.5844,0.583,0.7633,0.6025,0.4128,0.6496,0.6998,0.7493,0.6419,0.6387,0.6582,0.6654,0.7633,0.6655,0.5772,0.6675,0.7138,0.7464,0.5726,0.6369097232818604,0.6869992613792419,0.0468,0.6371,0.5353,0.6482,0.6837,0.771
404,0.7014,0.4054,0.686,0.7524,0.8421,0.6067,0.6074,0.6152,0.6019,0.7833,0.6185,0.4,0.6555,0.7058,0.7663,0.6411,0.6285,0.6487,0.6747,0.7584,0.6602,0.5706,0.6657,0.7186,0.7375,0.5273,0.6262676119804382,0.6975249648094177,0.0557,0.6456,0.5224,0.6542,0.6907,0.7775
405,0.6983,0.4073,0.6826,0.7483,0.8389,0.6115,0.5935,0.6156,0.6084,0.7851,0.6349,0.4023,0.6613,0.7138,0.7827,0.638,0.6223,0.6357,0.6865,0.7506,0.667,0.5595,0.6721,0.7338,0.7402,0.5059,0.6146280169487,0.7080048322677612,0.0642,0.6499,0.517,0.6535,0.6982,0.7795
406,0.7065,0.4019,0.6891,0.7617,0.8416,0.6107,0.5906,0.617,0.6067,0.7838,0.653,0.3812,0.6672,0.7107,0.8092,0.6727,0.6052,0.6727,0.6988,0.7841,0.694,0.5407,0.6884,0.7368,0.776,0.4582,0.5992811918258667,0.7209066152572632,0.072,0.6674,0.5039,0.6669,0.7029,0.7989
407,0.6652,0.4393,0.6708,0.7804,0.7941,0.6031,0.6335,0.5979,0.62,0.7552,0.6066,0.4272,0.6657,0.7276,0.7493,0.6598,0.6167,0.6401,0.7169,0.752,0.6732,0.5536,0.6791,0.7454,0.7464,0.4415,0.5943121314048767,0.7227899432182312,0.0795,0.6416,0.5341,0.6507,0.7181,0.7594
408,0.6856,0.4264,0.6797,0.7852,0.8131,0.6185,0.5946,0.6149,0.6233,0.776,0.6464,0.3963,0.6721,0.7259,0.7961,0.6712,0.6025,0.6617,0.7136,0.7785,0.7071,0.5299,0.6988,0.7427,0.7926,0.4439,0.5879337787628174,0.7272966504096985,0.087,0.6658,0.5099,0.6654,0.7181,0.7913
409,0.6762,0.4376,0.6752,0.7851,0.8033,0.6329,0.5823,0.6319,0.6344,0.7825,0.6417,0.404,0.6752,0.7347,0.7877,0.6649,0.605,0.6685,0.7066,0.783,0.7092,0.5553,0.7025,0.7615,0.7827,0.432,0.5815547704696655,0.7340238690376282,0.0943,0.665,0.5168,0.6707,0.7245,0.7878
410,0.718,0.4059,0.6998,0.7955,0.8418,0.6303,0.5888,0.6252,0.6376,0.7767,0.6898,0.3577,0.6873,0.7258,0.8514,0.6736,0.6,0.6737,0.7129,0.7899,0.6959,0.5494,0.6908,0.7424,0.7759,0.4369,0.5695842504501343,0.7427541017532349,0.1018,0.6815,0.5004,0.6754,0.7228,0.8071
411,0.6376,0.4791,0.6624,0.7724,0.7693,0.6233,0.6008,0.6167,0.638,0.7721,0.6332,0.4079,0.6745,0.7299,0.7781,0.6599,0.6122,0.6666,0.7266,0.7671,0.6638,0.5868,0.6735,0.7392,0.7337,0.4321,0.5643126368522644,0.7439650893211365,0.1092,0.6436,0.5374,0.6587,0.7212,0.7641
412,0.7219,0.4122,0.7002,0.794,0.8421,0.6449,0.5726,0.6388,0.6543,0.784,0.6813,0.3675,0.6865,0.7375,0.8359,0.6551,0.6242,0.6742,0.6985,0.7792,0.6848,0.5769,0.6837,0.7386,0.7591,0.4259,0.5572089552879333,0.7491381764411926,0.1164,0.6776,0.5107,0.6767,0.7246,0.8001
413,0.6956,0.458,0.679,0.7928,0.812,0.6356,0.5879,0.6266,0.6519,0.7731,0.6909,0.3578,0.6877,0.7343,0.847,0.6451,0.6298,0.6593,0.7066,0.7582,0.6693,0.5879,0.6752,0.7366,0.7427,0.4303,0.5482163429260254,0.7563760876655579,0.1237,0.6673,0.5243,0.6656,0.7244,0.7866
414,0.6647,0.4566,0.6702,0.7862,0.791,0.6298,0.5877,0.6223,0.6435,0.7756,0.6535,0.3989,0.6801,0.7405,0.8007,0.6987,0.5851,0.7023,0.7245,0.805,0.6958,0.5492,0.692,0.7509,0.771,0.4276,0.5399590134620667,0.7618544101715088,0.131,0.6685,0.5155,0.6734,0.7291,0.7887
415,0.6942,0.4324,0.6855,0.7982,0.8178,0.6368,0.5741,0.629,0.6502,0.7805,0.681,0.3622,0.6852,0.7333,0.8363,0.7047,0.5954,0.7067,0.7446,0.804,0.6646,0.5947,0.6688,0.7208,0.7428,0.4301,0.5372570753097534,0.7627362012863159,0.1383,0.6763,0.5118,0.675,0.7294,0.7963
416,0.6744,0.4653,0.6771,0.794,0.8001,0.6255,0.6045,0.6169,0.6518,0.7647,0.6713,0.38,0.6865,0.7467,0.8205,0.6695,0.6239,0.6772,0.7211,0.7815,0.6732,0.5953,0.6775,0.7397,0.7468,0.4293,0.5311768651008606,0.7675162553787231,0.1455,0.6628,0.5338,0.667,0.7307,0.7827
417,0.7262,0.4216,0.7022,0.8,0.84,0.6466,0.5694,0.6373,0.6628,0.7843,0.7005,0.3391,0.6931,0.7321,0.8629,0.6884,0.598,0.7027,0.7076,0.8041,0.6943,0.5542,0.6905,0.7352,0.7757,0.4388,0.520068883895874,0.7727571725845337,0.153,0.6912,0.4965,0.6852,0.7275,0.8134
418,0.7202,0.4213,0.6978,0.8025,0.8352,0.6413,0.5782,0.635,0.6518,0.7841,0.7044,0.3286,0.6963,0.7279,0.8699,0.6948,0.5823,0.6934,0.7299,0.8021,0.6906,0.5542,0.6879,0.746,0.7676,0.4348,0.5144184827804565,0.7778185606002808,0.1604,0.6903,0.4929,0.6821,0.7316,0.8118
419,0.7189,0.4177,0.6984,0.8061,0.8358,0.6426,0.5653,0.6341,0.6582,0.7839,0.6897,0.3446,0.6914,0.7424,0.8463,0.6953,0.5842,0.7034,0.7141,0.809,0.6793,0.5522,0.678,0.7211,0.7658,0.4191,0.5133952498435974,0.7782614827156067,0.1675,0.6852,0.4928,0.6811,0.7284,0.8082
420,0.7249,0.3988,0.7049,0.8097,0.8435,0.6693,0.5329,0.6714,0.6674,0.8079,0.6937,0.3424,0.6948,0.7445,0.8479,0.7093,0.5749,0.7138,0.7357,0.8131,0.6894,0.564,0.687,0.7457,0.7657,0.4333,0.5053093433380127,0.7828998565673828,0.1749,0.6973,0.4826,0.6944,0.7406,0.8156
421,0.6823,0.4571,0.6826,0.7996,0.8074,0.6476,0.5692,0.6402,0.6615,0.7873,0.6429,0.4007,0.6832,0.7451,0.7881,0.7188,0.5647,0.704,0.7669,0.8045,0.678,0.5947,0.683,0.7526,0.7504,0.4287,0.5060873031616211,0.7814096212387085,0.1822,0.6739,0.5173,0.6786,0.7451,0.7875
422,0.7112,0.4202,0.6954,0.8079,0.8309,0.6507,0.564,0.6426,0.6648,0.7872,0.6207,0.4301,0.6797,0.7438,0.7638,0.7323,0.5564,0.7284,0.7565,0.816,0.6781,0.5975,0.6828,0.7495,0.7505,0.421,0.4965384602546692,0.7879412770271301,0.1893,0.6786,0.5136,0.6858,0.7445,0.7897
423,0.7259,0.3967,0.7069,0.8115,0.8449,0.6618,0.5488,0.662,0.6619,0.8022,0.6885,0.3488,0.6952,0.7536,0.8381,0.7317,0.5382,0.7447,0.7244,0.8262,0.7252,0.4915,0.7146,0.7559,0.8077,0.424,0.49121391773223877,0.7908540368080139,0.1965,0.7066,0.4648,0.7047,0.7415,0.8238
424,0.7397,0.3922,0.7143,0.8099,0.8522,0.6569,0.568,0.6489,0.6695,0.7924,0.6589,0.3929,0.6833,0.7527,0.7984,0.7077,0.5738,0.6974,0.7526,0.8019,0.6743,0.5968,0.6812,0.7488,0.7463,0.42,0.4876486361026764,0.7919612526893616,0.2037,0.6875,0.5047,0.685,0.7467,0.7982
425,0.7264,0.3987,0.7051,0.8113,0.843,0.6584,0.5545,0.6523,0.6664,0.7961,0.663,0.3736,0.6884,0.7535,0.8077,0.7342,0.5281,0.7548,0.7194,0.8301,0.7028,0.5254,0.6953,0.7466,0.7855,0.4244,0.48964086174964905,0.7924540638923645,0.2109,0.697,0.4761,0.6992,0.7394,0.8125
426,0.7408,0.3998,0.7147,0.8051,0.8496,0.6763,0.5282,0.6808,0.6724,0.8124,0.6555,0.3922,0.6842,0.7522,0.7985,0.7117,0.551,0.7197,0.7271,0.8144,0.7093,0.5453,0.7025,0.7641,0.7831,0.4213,0.48436713218688965,0.7954844832420349,0.218,0.6987,0.4833,0.7004,0.7442,0.8116
427,0.6812,0.4678,0.6764,0.8002,0.8013,0.6614,0.5515,0.6516,0.6776,0.7956,0.6399,0.4009,0.6839,0.7503,0.7822,0.6965,0.5681,0.7119,0.7079,0.8112,0.6936,0.5703,0.6905,0.7469,0.7691,0.4212,0.4771370589733124,0.7992231249809265,0.2252,0.6745,0.5117,0.6829,0.7366,0.7919
428,0.736,0.3926,0.7115,0.8112,0.8496,0.6649,0.5463,0.6567,0.678,0.7994,0.6808,0.3573,0.6956,0.7599,0.8247,0.6902,0.5849,0.6884,0.7212,0.7974,0.6854,0.5727,0.6848,0.7434,0.7644,0.4211,0.472149133682251,0.8040291666984558,0.2323,0.6915,0.4908,0.6874,0.7427,0.8071
429,0.6818,0.4727,0.6742,0.7983,0.8,0.6582,0.545,0.6496,0.6721,0.7972,0.6506,0.3803,0.685,0.7503,0.7942,0.6951,0.5579,0.71,0.7007,0.8107,0.6933,0.5597,0.6893,0.7383,0.7746,0.4261,0.4667304456233978,0.8060740232467651,0.2396,0.6758,0.5031,0.6816,0.7319,0.7953
430,0.6824,0.4769,0.6804,0.8005,0.8055,0.6644,0.549,0.6575,0.6743,0.7992,0.697,0.3313,0.7,0.7585,0.8457,0.682,0.5687,0.6868,0.7046,0.799,0.6957,0.5491,0.6903,0.741,0.7778,0.4197,0.4660711884498596,0.8068740367889404,0.2467,0.6843,0.495,0.683,0.7358,0.8054
431,0.7124,0.4184,0.6972,0.8149,0.8303,0.6567,0.5605,0.6476,0.6719,0.794,0.6344,0.4074,0.6829,0.7451,0.7782,0.7106,0.5473,0.7175,0.7235,0.8159,0.6868,0.5847,0.6846,0.7403,0.7636,0.4308,0.4637337327003479,0.8072391152381897,0.254,0.6802,0.5037,0.686,0.7391,0.7964
432,0.7254,0.4034,0.7039,0.8158,0.8398,0.6814,0.5275,0.6776,0.6855,0.8118,0.6973,0.3243,0.6955,0.7431,0.8517,0.6967,0.5417,0.7077,0.6999,0.816,0.6977,0.5487,0.6922,0.7365,0.7831,0.422,0.46298927068710327,0.808709442615509,0.2612,0.6997,0.4691,0.6954,0.7362,0.8205
433,0.7612,0.3658,0.7375,0.8039,0.8658,0.6746,0.5367,0.6683,0.6827,0.8089,0.7072,0.3193,0.7015,0.7506,0.8599,0.7015,0.5573,0.7074,0.7188,0.8096,0.6921,0.5688,0.6888,0.7468,0.7695,0.4224,0.4572106599807739,0.8114147186279297,0.2684,0.7073,0.4696,0.7007,0.7406,0.8227
434,0.6965,0.4488,0.6876,0.809,0.8164,0.658,0.5595,0.648,0.675,0.7929,0.6385,0.4039,0.6854,0.7503,0.7804,0.6768,0.589,0.6845,0.7155,0.7883,0.6729,0.6214,0.6766,0.7367,0.7464,0.4206,0.4491077959537506,0.8160391449928284,0.2756,0.6685,0.5245,0.6764,0.7373,0.7849
435,0.7405,0.3846,0.7153,0.8177,0.8522,0.6656,0.5627,0.6571,0.6786,0.7996,0.7046,0.3116,0.6996,0.7397,0.8617,0.6951,0.5627,0.694,0.7291,0.7989,0.6773,0.6012,0.6779,0.7346,0.7561,0.4222,0.4481743574142456,0.8162546157836914,0.2827,0.6966,0.4846,0.6888,0.7399,0.8137
436,0.7036,0.44,0.6904,0.8098,0.822,0.6682,0.5521,0.6659,0.6713,0.805,0.6964,0.3343,0.698,0.7562,0.8445,0.7068,0.5435,0.7064,0.7295,0.8105,0.6997,0.5501,0.6938,0.7419,0.7833,0.4226,0.4467886686325073,0.817465603351593,0.2899,0.6949,0.484,0.6909,0.7417,0.8131
437,0.7261,0.4068,0.7036,0.8161,0.8389,0.6711,0.5365,0.6612,0.6868,0.8059,0.717,0.3025,0.7091,0.7477,0.8745,0.68,0.579,0.6882,0.7044,0.795,0.6878,0.5732,0.6842,0.734,0.7699,0.422,0.4430134892463684,0.8188581466674805,0.2971,0.6964,0.4796,0.6893,0.7378,0.8168
438,0.7195,0.42,0.6998,0.8162,0.8341,0.6573,0.5687,0.6465,0.6793,0.7916,0.6998,0.3274,0.7033,0.7668,0.8474,0.6739,0.5682,0.6864,0.6848,0.7993,0.6955,0.5585,0.6906,0.7386,0.7787,0.4236,0.43776556849479675,0.8224232196807861,0.3043,0.6892,0.4886,0.6853,0.7371,0.8102
439,0.743,0.3702,0.718,0.8169,0.856,0.6695,0.5585,0.6624,0.6809,0.803,0.6819,0.3429,0.6982,0.7639,0.8263,0.6485,0.6229,0.6574,0.6948,0.7638,0.6588,0.6476,0.6675,0.7231,0.7355,0.4246,0.43329644203186035,0.8249608874320984,0.3115,0.6803,0.5084,0.6807,0.7359,0.7969
440,0.6902,0.4565,0.6843,0.8071,0.8108,0.6575,0.5636,0.6488,0.677,0.7956,0.6594,0.3625,0.6912,0.7548,0.8025,0.6875,0.5719,0.6838,0.7291,0.7906,0.6698,0.622,0.6751,0.7368,0.7454,0.4251,0.42987069487571716,0.8266606330871582,0.3187,0.6729,0.5153,0.6766,0.741,0.789
441,0.7411,0.3793,0.7157,0.8193,0.8523,0.6809,0.5291,0.6779,0.6845,0.8116,0.7068,0.3091,0.703,0.7532,0.86,0.7054,0.5341,0.7152,0.705,0.8126,0.7169,0.513,0.7075,0.7501,0.8025,0.4306,0.43427741527557373,0.8253459334373474,0.326,0.7102,0.4529,0.7039,0.7424,0.8278
442,0.7736,0.3287,0.7522,0.8068,0.8815,0.6823,0.5308,0.6775,0.689,0.8143,0.6892,0.3354,0.6993,0.759,0.8377,0.6825,0.5457,0.6864,0.694,0.8012,0.6849,0.5819,0.6824,0.7391,0.7653,0.4225,0.429335355758667,0.8266466856002808,0.3332,0.7025,0.4645,0.6996,0.7376,0.82
443,0.7273,0.4001,0.7072,0.8221,0.8423,0.6728,0.5634,0.67,0.6785,0.8029,0.675,0.3601,0.6946,0.7624,0.8166,0.6876,0.5478,0.6853,0.7121,0.7985,0.7087,0.5483,0.7016,0.7663,0.7848,0.425,0.42140039801597595,0.8312591910362244,0.3404,0.6943,0.4839,0.6917,0.7483,0.809
444,0.7478,0.3677,0.7224,0.8229,0.8599,0.675,0.5348,0.6672,0.6858,0.8091,0.7064,0.3145,0.7049,0.7614,0.8548,0.6691,0.5603,0.6717,0.6903,0.7932,0.6928,0.5617,0.6879,0.7362,0.7783,0.4217,0.42296600341796875,0.8301838636398315,0.3475,0.6982,0.4678,0.6908,0.7393,0.8191
445,0.7119,0.4197,0.6959,0.813,0.8295,0.6654,0.5607,0.662,0.6728,0.7983,0.6528,0.3781,0.6898,0.7533,0.7952,0.6779,0.5583,0.6728,0.7078,0.7907,0.6934,0.5785,0.691,0.7568,0.769,0.4236,0.42139768600463867,0.830413281917572,0.3547,0.6803,0.4991,0.6823,0.7407,0.7965
446,0.7419,0.3748,0.7175,0.8223,0.8544,0.6659,0.5495,0.6615,0.6752,0.8013,0.694,0.3275,0.7007,0.762,0.8418,0.71,0.5324,0.709,0.7211,0.8121,0.7197,0.5156,0.7089,0.7603,0.801,0.4227,0.4139474928379059,0.8338567018508911,0.3619,0.7063,0.46,0.6995,0.7482,0.8221
447,0.7503,0.3631,0.7246,0.8233,0.8621,0.6799,0.5443,0.678,0.6842,0.8095,0.6898,0.3271,0.6966,0.7552,0.8373,0.6803,0.5619,0.6812,0.7111,0.7897,0.7109,0.5429,0.7022,0.7584,0.7892,0.4277,0.4179115295410156,0.8328531980514526,0.3691,0.7022,0.4679,0.6965,0.7464,0.8176
448,0.7228,0.4005,0.7058,0.8222,0.8399,0.6697,0.5445,0.6626,0.6798,0.808,0.659,0.3727,0.6917,0.7589,0.8002,0.6813,0.5543,0.6836,0.7103,0.7961,0.6896,0.5748,0.6866,0.7452,0.7683,0.4255,0.4139789342880249,0.8333300352096558,0.3764,0.6845,0.4894,0.6861,0.7433,0.8025
449,0.7334,0.3968,0.7088,0.8214,0.8432,0.6792,0.5318,0.6917,0.6702,0.8128,0.6647,0.3663,0.6944,0.7645,0.8068,0.704,0.5176,0.7163,0.6998,0.8144,0.7382,0.4838,0.7259,0.7704,0.8171,0.4261,0.41082334518432617,0.8351973295211792,0.3836,0.7039,0.4593,0.7074,0.7453,0.8189
450,0.6982,0.4477,0.6892,0.8111,0.818,0.6752,0.5396,0.6672,0.687,0.8101,0.6671,0.3592,0.694,0.7559,0.8117,0.6881,0.5568,0.689,0.7127,0.7976,0.7131,0.5443,0.7039,0.7612,0.7914,0.4268,0.40727266669273376,0.8375235199928284,0.3908,0.6883,0.4895,0.6887,0.7456,0.8058
451,0.7099,0.4251,0.6943,0.8133,0.8269,0.6653,0.5487,0.6606,0.6731,0.8036,0.7174,0.2892,0.709,0.7482,0.876,0.6729,0.5605,0.6728,0.6959,0.7918,0.7113,0.5242,0.7022,0.7465,0.7968,0.4313,0.40797290205955505,0.837282121181488,0.3982,0.6954,0.4695,0.6878,0.7354,0.819
452,0.6972,0.4408,0.6906,0.8113,0.8186,0.6585,0.5546,0.6493,0.6748,0.7984,0.6613,0.3638,0.6955,0.7617,0.805,0.6958,0.5364,0.6985,0.71,0.8078,0.7054,0.5563,0.6978,0.7602,0.7808,0.4277,0.4062248766422272,0.8378088474273682,0.4054,0.6836,0.4904,0.6863,0.7436,0.8021
453,0.7366,0.38,0.7135,0.8228,0.85,0.6722,0.534,0.6664,0.6801,0.8089,0.6959,0.329,0.7023,0.769,0.8415,0.6992,0.5372,0.7047,0.7019,0.8113,0.733,0.4845,0.7221,0.7603,0.8167,0.4292,0.4019906520843506,0.8401749134063721,0.4127,0.7074,0.4529,0.7018,0.7468,0.8257
