epoch,Alessandro-cleaned-data_val_dice,Alessandro-cleaned-data_val_loss,Alessandro-cleaned-data_val_precision,Alessandro-cleaned-data_val_recall,Alessandro-cleaned-data_val_sparse_categorical_accuracy,Antoine-cleaned-data_val_dice,Antoine-cleaned-data_val_loss,Antoine-cleaned-data_val_precision,Antoine-cleaned-data_val_recall,Antoine-cleaned-data_val_sparse_categorical_accuracy,Kornum-cleaned-data_v2_val_dice,Kornum-cleaned-data_v2_val_loss,Kornum-cleaned-data_v2_val_precision,Kornum-cleaned-data_v2_val_recall,Kornum-cleaned-data_v2_val_sparse_categorical_accuracy,Maiken-cleaned-data_val_dice,Maiken-cleaned-data_val_loss,Maiken-cleaned-data_val_precision,Maiken-cleaned-data_val_recall,Maiken-cleaned-data_val_sparse_categorical_accuracy,Sebastian-cleaned-data_val_dice,Sebastian-cleaned-data_val_loss,Sebastian-cleaned-data_val_precision,Sebastian-cleaned-data_val_recall,Sebastian-cleaned-data_val_sparse_categorical_accuracy,epoch_minutes,loss,sparse_categorical_accuracy,train_hours,val_dice,val_loss,val_precision,val_recall,val_sparse_categorical_accuracy
0,0.2831,1.0699,0.5331,0.3664,0.5401,0.4696,1.091,0.5078,0.5828,0.5314,0.28,1.1124,0.3538,0.3659,0.492,0.2008,1.229,0.1452,0.4466,0.2141,0.2622,1.146,0.2143,0.3883,0.3993,1.4116,1.1451778411865234,0.3779705762863159,0.0235,0.2991,1.1297,0.3508,0.43,0.4354
1,0.5558,0.9959,0.5727,0.5679,0.7153,0.4521,1.0472,0.5488,0.534,0.5326,0.4497,1.0444,0.4791,0.4787,0.5914,0.2629,1.1032,0.3969,0.4769,0.2835,0.3334,1.0691,0.4193,0.4304,0.4883,0.4304,1.079948663711548,0.4448775947093963,0.0308,0.4108,1.052,0.4834,0.4976,0.5222
2,0.5701,0.9019,0.5981,0.5908,0.8283,0.4723,1.0104,0.5417,0.5095,0.5773,0.5236,0.9663,0.5349,0.5362,0.6984,0.5038,0.9836,0.5066,0.5331,0.6685,0.5098,0.9935,0.5338,0.5124,0.6818,0.4289,1.0189974308013916,0.5336759686470032,0.038,0.5159,0.9711,0.543,0.5364,0.6909
3,0.5972,0.7988,0.6392,0.6173,0.871,0.5079,0.9653,0.5532,0.5274,0.6288,0.5574,0.8786,0.5655,0.5755,0.7509,0.5249,0.9152,0.5466,0.5523,0.698,0.5208,0.9305,0.5647,0.5301,0.7144,0.4323,0.9581634998321532,0.5781010389328003,0.0453,0.5416,0.8977,0.5738,0.5605,0.7326
4,0.6034,0.7196,0.6188,0.6236,0.8827,0.5239,0.9323,0.5612,0.5323,0.665,0.573,0.8044,0.5764,0.5917,0.7757,0.5244,0.8738,0.5622,0.556,0.7052,0.523,0.8868,0.5702,0.5338,0.7219,0.4234,0.9090812802314758,0.5912083387374878,0.0524,0.5495,0.8434,0.5778,0.5675,0.7501
5,0.6062,0.664,0.6273,0.6255,0.8866,0.5348,0.9093,0.5638,0.5418,0.6795,0.5798,0.7537,0.5805,0.5982,0.7861,0.5239,0.8534,0.5586,0.5598,0.7026,0.5292,0.8581,0.5741,0.5388,0.7275,0.4101,0.8748961091041565,0.5959624648094177,0.0594,0.5548,0.8077,0.5809,0.5728,0.7565
6,0.607,0.6292,0.6244,0.626,0.8876,0.5404,0.8932,0.5638,0.547,0.6862,0.5816,0.7271,0.5809,0.6004,0.7881,0.5297,0.8344,0.5566,0.5655,0.7075,0.5336,0.8422,0.5785,0.5419,0.7295,0.4121,0.8521233797073364,0.5982707142829895,0.0664,0.5585,0.7852,0.5808,0.5762,0.7598
7,0.607,0.6011,0.6226,0.6258,0.8881,0.5431,0.8762,0.562,0.5487,0.6919,0.5821,0.7068,0.579,0.6012,0.7888,0.5314,0.8241,0.5572,0.5673,0.7103,0.5378,0.8297,0.5864,0.5451,0.7324,0.4118,0.8328499794006348,0.6045271158218384,0.0733,0.5603,0.7676,0.5814,0.5776,0.7623
8,0.6072,0.5825,0.6237,0.6257,0.8881,0.545,0.8635,0.5604,0.55,0.6947,0.5825,0.6973,0.5806,0.6016,0.7885,0.536,0.8154,0.5563,0.5714,0.7132,0.541,0.8229,0.5888,0.5471,0.7329,0.4132,0.8237327933311462,0.6038388013839722,0.0803,0.5623,0.7563,0.582,0.5792,0.7635
9,0.6078,0.57,0.6262,0.626,0.8883,0.5459,0.8555,0.5596,0.5507,0.6956,0.5825,0.6935,0.5808,0.6018,0.7878,0.5445,0.8064,0.5606,0.5778,0.72,0.5435,0.8207,0.589,0.5485,0.732,0.4142,0.81954425573349,0.6019275784492493,0.0874,0.5648,0.7492,0.5832,0.581,0.7647
10,0.6099,0.5593,0.6363,0.6248,0.8848,0.5502,0.8474,0.5601,0.5573,0.6946,0.5855,0.6798,0.5884,0.6025,0.7893,0.5449,0.8166,0.5528,0.5833,0.7051,0.5531,0.813,0.5849,0.5538,0.7301,0.4121,0.8138629198074341,0.6022089123725891,0.0944,0.5687,0.7432,0.5845,0.5843,0.7608
11,0.608,0.5491,0.6309,0.6247,0.8863,0.5491,0.8418,0.5616,0.5527,0.6993,0.5858,0.6747,0.5902,0.6033,0.7901,0.5467,0.806,0.5624,0.5813,0.7162,0.5483,0.8105,0.5915,0.5515,0.733,0.4086,0.8091949224472046,0.606139063835144,0.1014,0.5676,0.7364,0.5873,0.5827,0.765
12,0.6124,0.5443,0.6385,0.6256,0.8843,0.5497,0.8361,0.5606,0.5533,0.6981,0.5886,0.6727,0.5979,0.6039,0.7886,0.5495,0.808,0.5543,0.587,0.7106,0.5559,0.81,0.5875,0.5558,0.7296,0.408,0.806954562664032,0.6039565205574036,0.1083,0.5712,0.7342,0.5878,0.5851,0.7622
13,0.612,0.5373,0.6361,0.6256,0.8848,0.5494,0.8291,0.5615,0.5512,0.7015,0.589,0.6723,0.5993,0.6043,0.7879,0.5509,0.8014,0.5576,0.5862,0.7154,0.5545,0.8085,0.5899,0.5551,0.7305,0.4166,0.7998627424240112,0.6096064448356628,0.1154,0.5712,0.7297,0.5889,0.5845,0.764
14,0.6156,0.5355,0.6315,0.6259,0.8816,0.55,0.8284,0.5591,0.5548,0.6958,0.5933,0.6741,0.6057,0.6053,0.7846,0.5545,0.7993,0.5525,0.5925,0.7138,0.5595,0.81,0.5855,0.5586,0.7269,0.41,0.7996643781661987,0.6071964502334595,0.1223,0.5746,0.7295,0.5869,0.5874,0.7605
15,0.6158,0.5313,0.6295,0.6259,0.8813,0.5512,0.8247,0.5614,0.5551,0.6988,0.5947,0.6744,0.6069,0.6058,0.7836,0.5567,0.7945,0.5548,0.5933,0.7182,0.5587,0.8101,0.5855,0.5581,0.7269,0.4111,0.7966281771659851,0.6083276271820068,0.1293,0.5754,0.727,0.5876,0.5876,0.7618
16,0.6151,0.5258,0.6287,0.6253,0.8811,0.5502,0.8194,0.5628,0.5522,0.7033,0.5965,0.6678,0.6097,0.6068,0.7843,0.5559,0.7937,0.5585,0.5906,0.7211,0.5572,0.806,0.589,0.5573,0.73,0.4219,0.7946699857711792,0.6100273728370667,0.1365,0.575,0.7225,0.5897,0.5864,0.764
17,0.6191,0.5247,0.6291,0.6262,0.8779,0.5517,0.8187,0.5647,0.5543,0.7036,0.6013,0.6687,0.6123,0.6082,0.7804,0.5599,0.7924,0.5576,0.5958,0.7208,0.5592,0.808,0.5842,0.5585,0.726,0.4099,0.7944836616516113,0.6082079410552979,0.1434,0.5782,0.7225,0.5896,0.5886,0.7617
18,0.6186,0.5204,0.6281,0.6258,0.8777,0.5494,0.8123,0.561,0.5516,0.7028,0.602,0.6679,0.613,0.6085,0.7794,0.5595,0.7894,0.5583,0.5943,0.7239,0.5594,0.8046,0.5869,0.5588,0.7276,0.4121,0.7896320819854736,0.6117191314697266,0.1504,0.5778,0.7189,0.5895,0.5878,0.7623
19,0.6166,0.5154,0.627,0.6251,0.879,0.5485,0.8113,0.5615,0.5508,0.7034,0.6023,0.6608,0.6136,0.6089,0.7815,0.5602,0.7886,0.5643,0.5929,0.7283,0.5556,0.8025,0.5878,0.5564,0.7299,0.4117,0.791893482208252,0.6095206141471863,0.1574,0.5766,0.7157,0.5908,0.5868,0.7644
20,0.6257,0.5178,0.6306,0.628,0.8699,0.5504,0.8123,0.5594,0.5573,0.6951,0.6098,0.6671,0.6148,0.6117,0.7711,0.5616,0.7923,0.5533,0.6017,0.7176,0.5606,0.8081,0.5764,0.5597,0.718,0.4102,0.7850692272186279,0.6116992235183716,0.1644,0.5816,0.7195,0.5869,0.5917,0.7543
21,0.626,0.5136,0.6314,0.6279,0.869,0.5471,0.8042,0.5554,0.5519,0.6965,0.611,0.6607,0.6153,0.6124,0.7706,0.5596,0.7965,0.5544,0.5987,0.7175,0.5608,0.8006,0.5782,0.5598,0.7212,0.415,0.7882397770881653,0.6110268831253052,0.1715,0.5809,0.7151,0.5869,0.5901,0.755
22,0.6219,0.5104,0.6287,0.6263,0.8738,0.5462,0.8049,0.5579,0.5487,0.7011,0.6098,0.6604,0.6156,0.6119,0.7728,0.5638,0.7876,0.5616,0.5976,0.7283,0.5598,0.8028,0.5845,0.5592,0.7257,0.4078,0.7823955416679382,0.6143585443496704,0.1784,0.5803,0.7132,0.5897,0.5887,0.7603
23,0.6281,0.5106,0.6322,0.629,0.8662,0.5462,0.803,0.5546,0.5516,0.6943,0.6136,0.6594,0.6153,0.6141,0.7647,0.5604,0.7952,0.5528,0.6004,0.7173,0.5623,0.8017,0.5775,0.5613,0.7187,0.4162,0.7865962982177734,0.6091655492782593,0.1854,0.5821,0.714,0.5865,0.5913,0.7522
24,0.619,0.5041,0.6262,0.6251,0.8758,0.5426,0.7978,0.5547,0.5441,0.7024,0.6098,0.6573,0.6156,0.612,0.7729,0.5658,0.7845,0.5709,0.5953,0.735,0.557,0.7998,0.5887,0.5577,0.7293,0.4049,0.778038501739502,0.616748571395874,0.1924,0.5788,0.7087,0.5912,0.5868,0.7631
25,0.6158,0.5003,0.6249,0.6252,0.8803,0.5383,0.7946,0.5545,0.5385,0.7082,0.6059,0.6563,0.6142,0.6102,0.777,0.567,0.7771,0.5841,0.592,0.7449,0.5541,0.7989,0.5993,0.5564,0.7333,0.456,0.7805518507957458,0.6164154410362244,0.2001,0.5762,0.7054,0.5954,0.5845,0.7687
26,0.6226,0.5031,0.6276,0.6262,0.8716,0.5437,0.8011,0.5563,0.5472,0.6985,0.6135,0.6571,0.6159,0.6142,0.7668,0.5679,0.7851,0.5658,0.5991,0.7329,0.5582,0.8051,0.5822,0.5579,0.7225,0.4514,0.7806710600852966,0.6112882494926453,0.2077,0.5812,0.7103,0.5896,0.5889,0.7585
27,0.6236,0.5026,0.6276,0.6263,0.8696,0.5446,0.7999,0.5567,0.5487,0.6981,0.6131,0.6586,0.6139,0.6138,0.7617,0.5664,0.7856,0.5611,0.599,0.7304,0.5588,0.8071,0.5791,0.5583,0.7184,0.4324,0.7813668847084045,0.6123156547546387,0.2151,0.5813,0.7108,0.5877,0.5892,0.7556
28,0.6179,0.4968,0.6245,0.6243,0.8755,0.5398,0.7898,0.5529,0.541,0.7042,0.6127,0.652,0.6157,0.6137,0.769,0.5703,0.7843,0.5792,0.5973,0.7396,0.5577,0.7986,0.5901,0.5581,0.7281,0.4287,0.7808448672294617,0.614679753780365,0.2223,0.5797,0.7043,0.5925,0.5869,0.7633
29,0.6169,0.4949,0.6235,0.6247,0.878,0.5391,0.7901,0.554,0.54,0.7067,0.6115,0.6552,0.615,0.6129,0.7688,0.5722,0.7778,0.5836,0.5968,0.7448,0.5556,0.8027,0.592,0.5567,0.728,0.4299,0.7763470411300659,0.6155495643615723,0.2296,0.5791,0.7041,0.5936,0.5862,0.7653
30,0.6196,0.4937,0.6265,0.6249,0.8743,0.5396,0.7845,0.5502,0.5416,0.7008,0.6133,0.6521,0.6153,0.614,0.766,0.5702,0.7846,0.5771,0.5975,0.7393,0.5588,0.7976,0.5896,0.5588,0.7271,0.4271,0.7752881050109863,0.6158627867698669,0.2368,0.5803,0.7025,0.5917,0.5874,0.7615
31,0.6236,0.4956,0.6277,0.6261,0.8691,0.5417,0.7928,0.5543,0.5458,0.6969,0.6143,0.653,0.6142,0.6151,0.7578,0.5696,0.7872,0.5644,0.6016,0.7325,0.5577,0.8062,0.5782,0.5574,0.717,0.4184,0.7775996923446655,0.6129999756813049,0.2439,0.5814,0.707,0.5878,0.5892,0.7547
32,0.6205,0.4914,0.6268,0.6253,0.874,0.5391,0.7833,0.5507,0.5414,0.7005,0.6134,0.651,0.6144,0.6141,0.7625,0.5706,0.7843,0.5739,0.5982,0.7387,0.5576,0.8002,0.5861,0.5576,0.7236,0.413,0.775917112827301,0.6147814989089966,0.251,0.5802,0.702,0.5904,0.5873,0.7599
33,0.6189,0.4896,0.6255,0.6252,0.8764,0.5398,0.7833,0.5539,0.5414,0.705,0.6132,0.6522,0.6146,0.614,0.7633,0.573,0.779,0.5807,0.5979,0.7438,0.5564,0.8035,0.5898,0.5569,0.7248,0.4131,0.7727891802787781,0.6164214015007019,0.258,0.5803,0.7015,0.5929,0.5871,0.7627
34,0.6243,0.4908,0.629,0.6269,0.8702,0.5403,0.7825,0.5518,0.5435,0.6987,0.6146,0.6529,0.6142,0.6158,0.7548,0.5739,0.784,0.5698,0.604,0.7368,0.558,0.8041,0.5802,0.5577,0.7175,0.4141,0.7756152153015137,0.6141870021820068,0.265,0.5822,0.7029,0.589,0.5896,0.7556
35,0.6245,0.4891,0.6297,0.6272,0.8711,0.5431,0.7852,0.5571,0.5468,0.7017,0.6151,0.6507,0.6146,0.6164,0.7553,0.5738,0.7832,0.571,0.6031,0.7378,0.557,0.8072,0.5808,0.5568,0.7175,0.4185,0.7712927460670471,0.6166967153549194,0.2721,0.5827,0.7031,0.5906,0.5901,0.7567
36,0.6278,0.4904,0.6301,0.6281,0.8626,0.5435,0.7824,0.5554,0.5487,0.6973,0.6145,0.6508,0.6137,0.6184,0.7438,0.5707,0.7916,0.5611,0.6073,0.7235,0.5581,0.8064,0.574,0.558,0.7097,0.4133,0.7708684206008911,0.6151605844497681,0.2791,0.5829,0.7043,0.5869,0.5921,0.7474
37,0.617,0.4828,0.6264,0.6242,0.8771,0.541,0.7728,0.555,0.5426,0.7071,0.6149,0.6416,0.6156,0.6154,0.7629,0.569,0.7838,0.5835,0.5939,0.7439,0.5558,0.797,0.5938,0.5568,0.7278,0.4121,0.7684661746025085,0.6196054816246033,0.2861,0.5795,0.6956,0.5949,0.5866,0.7638
38,0.6258,0.4863,0.6309,0.6278,0.8698,0.5437,0.7793,0.5576,0.5472,0.7029,0.6151,0.6492,0.6142,0.618,0.7477,0.5741,0.7853,0.5689,0.6043,0.7347,0.557,0.8074,0.5788,0.5568,0.7147,0.4101,0.7681673169136047,0.616578996181488,0.2931,0.5831,0.7015,0.5901,0.5908,0.754
39,0.626,0.4856,0.6307,0.6278,0.869,0.544,0.7751,0.5565,0.5476,0.7027,0.614,0.6494,0.6132,0.6176,0.7447,0.5738,0.7865,0.5671,0.6052,0.7328,0.5569,0.8055,0.5774,0.5566,0.7131,0.4092,0.7673815488815308,0.6179017424583435,0.3001,0.5829,0.7004,0.589,0.591,0.7525
40,0.6225,0.4827,0.6304,0.6271,0.8754,0.5434,0.7736,0.558,0.546,0.7066,0.6147,0.6483,0.614,0.6166,0.7515,0.5747,0.7802,0.5742,0.6011,0.7415,0.5555,0.8062,0.5842,0.5557,0.7193,0.4083,0.7712231874465942,0.6152104139328003,0.307,0.5822,0.6982,0.5922,0.5893,0.7589
41,0.6175,0.4788,0.628,0.6252,0.8787,0.5419,0.767,0.556,0.5438,0.7083,0.6148,0.6419,0.6148,0.6158,0.7582,0.5716,0.7819,0.5807,0.5959,0.7441,0.5557,0.7996,0.5934,0.5565,0.7256,0.4122,0.7663028836250305,0.6189451217651367,0.314,0.5803,0.6938,0.5946,0.5874,0.763
42,0.6184,0.4789,0.6289,0.6257,0.8788,0.5417,0.7654,0.5558,0.5435,0.7083,0.6147,0.6442,0.6142,0.6162,0.754,0.574,0.7797,0.5795,0.5982,0.744,0.5555,0.801,0.5902,0.5562,0.7235,0.4103,0.7689287662506104,0.6163356304168701,0.3209,0.5809,0.6938,0.5937,0.588,0.7617
43,0.6254,0.481,0.6324,0.6278,0.8713,0.5462,0.7698,0.5606,0.5498,0.7064,0.6153,0.6422,0.6145,0.6199,0.7429,0.5718,0.7893,0.5665,0.6027,0.7318,0.5575,0.8043,0.5803,0.5572,0.7153,0.4137,0.7659927010536194,0.6180513501167297,0.328,0.5832,0.6973,0.5909,0.5915,0.7535
44,0.624,0.4788,0.6335,0.6273,0.8733,0.5455,0.7641,0.5587,0.5484,0.7077,0.6156,0.639,0.6146,0.619,0.747,0.5692,0.7898,0.5667,0.5988,0.7326,0.5579,0.7998,0.5845,0.5576,0.7196,0.4099,0.7659705281257629,0.6163036823272705,0.3349,0.5824,0.6943,0.5916,0.5902,0.756
45,0.6226,0.4783,0.6322,0.6275,0.8765,0.5463,0.7684,0.5624,0.5491,0.7099,0.6145,0.6448,0.6136,0.6179,0.7457,0.5791,0.7805,0.5756,0.6058,0.7414,0.5567,0.8085,0.5857,0.5565,0.7174,0.4224,0.7638631463050842,0.6187655329704285,0.3421,0.5838,0.6961,0.5939,0.5914,0.7582
46,0.626,0.4783,0.6338,0.6281,0.8714,0.5473,0.764,0.5608,0.5508,0.7074,0.6143,0.6404,0.6138,0.6202,0.7389,0.5745,0.7913,0.5676,0.6064,0.7299,0.5599,0.8033,0.5824,0.5593,0.7152,0.4207,0.7626479864120483,0.6176842451095581,0.3492,0.5844,0.6955,0.5917,0.593,0.7526
47,0.6245,0.477,0.6349,0.6286,0.8762,0.5483,0.7678,0.5654,0.5516,0.7106,0.6142,0.644,0.6135,0.6194,0.7408,0.5793,0.7822,0.5734,0.6074,0.7389,0.5577,0.8105,0.5846,0.5573,0.715,0.417,0.7613942623138428,0.6178358793258667,0.3563,0.5848,0.6963,0.5944,0.5929,0.7563
48,0.621,0.4746,0.6335,0.6271,0.8782,0.5471,0.7617,0.5635,0.5498,0.7122,0.6153,0.6399,0.6144,0.6191,0.7457,0.5781,0.7847,0.5758,0.6052,0.7377,0.5581,0.8046,0.5898,0.5578,0.7199,0.4114,0.7641732692718506,0.6176822781562805,0.3633,0.5839,0.6931,0.5954,0.5918,0.7587
49,0.636,0.479,0.6405,0.6352,0.8655,0.5506,0.7644,0.5649,0.5566,0.7046,0.6107,0.6426,0.6125,0.6235,0.7239,0.5731,0.7944,0.5591,0.6141,0.7177,0.5602,0.8076,0.5755,0.5607,0.7026,0.4162,0.7647995948791504,0.6157610416412354,0.3703,0.5861,0.6976,0.5905,0.598,0.7429
50,0.6246,0.474,0.6372,0.6283,0.8755,0.5494,0.7578,0.5645,0.5529,0.7107,0.6151,0.6371,0.6143,0.6206,0.7407,0.5773,0.7885,0.5717,0.6073,0.733,0.5598,0.8015,0.587,0.5591,0.7175,0.4119,0.760995626449585,0.6187216639518738,0.3773,0.5852,0.6918,0.5949,0.5936,0.7555
51,0.6198,0.4713,0.6375,0.6278,0.8817,0.5474,0.7554,0.5637,0.5497,0.7137,0.6148,0.6408,0.614,0.6183,0.747,0.5806,0.7791,0.5784,0.6058,0.7433,0.5575,0.8037,0.5939,0.5574,0.7211,0.4131,0.7583821415901184,0.6210538744926453,0.3843,0.584,0.6901,0.5975,0.5918,0.7614
52,0.6268,0.4736,0.6378,0.6294,0.8742,0.5512,0.7566,0.5663,0.5556,0.71,0.6138,0.6385,0.6137,0.622,0.7344,0.5766,0.7907,0.5667,0.6102,0.7291,0.5593,0.8041,0.5822,0.5588,0.7126,0.4184,0.7642068266868591,0.6168842315673828,0.3914,0.5855,0.6927,0.5933,0.5952,0.7521
53,0.6185,0.4695,0.6385,0.6267,0.8809,0.5487,0.752,0.5655,0.5513,0.7148,0.6166,0.6334,0.6156,0.6201,0.7479,0.5765,0.7863,0.5761,0.6028,0.7384,0.5573,0.7998,0.5927,0.5573,0.7218,0.4132,0.760689914226532,0.6189371347427368,0.3984,0.5835,0.6882,0.5977,0.5916,0.7608
54,0.6313,0.4734,0.6417,0.6323,0.8729,0.5518,0.7599,0.5683,0.5575,0.7075,0.6132,0.6385,0.6136,0.6232,0.7314,0.5794,0.7886,0.5661,0.6161,0.7268,0.5617,0.8084,0.583,0.5612,0.7092,0.4207,0.7608655691146851,0.6174907684326172,0.4055,0.5875,0.6938,0.5945,0.5981,0.7496
55,0.6334,0.4729,0.6434,0.6335,0.8715,0.5519,0.7555,0.5669,0.5573,0.7079,0.612,0.6379,0.6131,0.6237,0.7276,0.578,0.7919,0.5643,0.6165,0.7238,0.5615,0.8056,0.5808,0.5612,0.708,0.4094,0.7579528093338013,0.6183266639709473,0.4125,0.5874,0.6928,0.5937,0.5984,0.7478
56,0.6209,0.4686,0.6418,0.6281,0.881,0.5495,0.7502,0.5662,0.5524,0.7143,0.6153,0.6356,0.6144,0.6202,0.7431,0.5821,0.7837,0.5766,0.6095,0.7397,0.5597,0.8018,0.5926,0.5591,0.7191,0.4099,0.7584539651870728,0.6191186904907227,0.4194,0.5855,0.688,0.5983,0.5939,0.7594
57,0.6202,0.4673,0.6423,0.6277,0.8811,0.5498,0.7512,0.5685,0.5525,0.7164,0.6162,0.6324,0.6153,0.6211,0.7441,0.5794,0.7856,0.5759,0.6064,0.7396,0.56,0.8025,0.5938,0.5592,0.7195,0.4108,0.7567057013511658,0.6184862852096558,0.4264,0.5851,0.6878,0.5992,0.5934,0.7601
58,0.6324,0.4705,0.6449,0.6331,0.8735,0.5521,0.7519,0.5686,0.5567,0.7107,0.6117,0.636,0.613,0.6243,0.7261,0.5777,0.7919,0.5643,0.6152,0.7252,0.5615,0.805,0.5818,0.5611,0.7082,0.4104,0.7593482136726379,0.6172034740447998,0.4334,0.5871,0.6911,0.5945,0.5981,0.7487
59,0.6306,0.4693,0.6447,0.6327,0.8765,0.5536,0.7514,0.5709,0.5581,0.7127,0.6121,0.6398,0.6129,0.6236,0.728,0.5816,0.7863,0.5677,0.6176,0.7285,0.5608,0.8075,0.5837,0.5604,0.7085,0.4168,0.758074164390564,0.618127167224884,0.4404,0.5877,0.6909,0.596,0.5985,0.7508
60,0.6235,0.4666,0.6426,0.6288,0.879,0.5511,0.746,0.5677,0.5543,0.7146,0.6156,0.6322,0.6149,0.6226,0.7384,0.5832,0.7867,0.574,0.6142,0.7347,0.5621,0.7995,0.5907,0.5611,0.7163,0.4082,0.7585203051567078,0.6183226704597473,0.4474,0.5871,0.6862,0.598,0.5962,0.7566
61,0.6307,0.4674,0.6473,0.6324,0.876,0.5533,0.7471,0.5695,0.5573,0.7136,0.6139,0.6326,0.6141,0.6242,0.7313,0.5799,0.7896,0.5676,0.6152,0.728,0.5621,0.8014,0.5859,0.5613,0.7119,0.4677,0.757542610168457,0.617977499961853,0.4553,0.588,0.6876,0.5969,0.5981,0.7522
62,0.6226,0.465,0.6456,0.6292,0.8814,0.551,0.7467,0.5702,0.5537,0.7171,0.6151,0.6337,0.6145,0.6223,0.7379,0.5835,0.7817,0.5762,0.6114,0.7402,0.5626,0.8034,0.5946,0.5614,0.717,0.4547,0.7570750117301941,0.619429886341095,0.463,0.587,0.6861,0.6002,0.5956,0.7587
63,0.6412,0.469,0.6493,0.6394,0.8689,0.5569,0.7493,0.5731,0.5634,0.7109,0.6104,0.6342,0.6129,0.6266,0.7208,0.5767,0.7922,0.5606,0.6207,0.7167,0.5627,0.8039,0.5797,0.5632,0.7028,0.4441,0.7606660723686218,0.6165271401405334,0.4705,0.5896,0.6897,0.5951,0.6027,0.744
64,0.6372,0.4672,0.6499,0.6366,0.8734,0.556,0.751,0.5738,0.5617,0.7122,0.6129,0.6329,0.6138,0.6256,0.7274,0.5825,0.7866,0.567,0.6218,0.7254,0.5625,0.8052,0.5832,0.5623,0.7064,0.4359,0.7537444233894348,0.6205829977989197,0.4779,0.5902,0.6886,0.5975,0.6016,0.749
65,0.6401,0.4671,0.6503,0.6386,0.871,0.5568,0.751,0.5744,0.5629,0.7118,0.6121,0.6318,0.6135,0.6261,0.7253,0.5801,0.7884,0.5641,0.6217,0.7218,0.5633,0.8048,0.5824,0.5634,0.7049,0.4351,0.7553436160087585,0.6170977354049683,0.4852,0.5905,0.6886,0.5969,0.6025,0.747
66,0.6291,0.4635,0.6505,0.6322,0.8788,0.5541,0.7458,0.5727,0.5581,0.7155,0.6159,0.6288,0.6153,0.6241,0.7368,0.5866,0.7821,0.5748,0.6187,0.736,0.563,0.8004,0.5908,0.5619,0.7137,0.4365,0.7569193840026855,0.6194997429847717,0.4926,0.5897,0.6841,0.6008,0.599,0.7562
67,0.6315,0.4637,0.6494,0.633,0.8764,0.5551,0.7443,0.5729,0.5594,0.7155,0.6153,0.6268,0.6151,0.625,0.7341,0.5839,0.7867,0.571,0.6189,0.7303,0.563,0.7984,0.5876,0.5621,0.7122,0.4277,0.7552014589309692,0.6183127164840698,0.4999,0.5898,0.684,0.5992,0.5997,0.7537
68,0.6408,0.4649,0.6513,0.6391,0.8711,0.5574,0.7476,0.5754,0.5629,0.7144,0.6127,0.6286,0.6141,0.6269,0.726,0.5792,0.7887,0.5638,0.6197,0.7217,0.563,0.8026,0.5818,0.5631,0.7046,0.4189,0.7534136176109314,0.6203176975250244,0.507,0.5906,0.6865,0.5973,0.6023,0.7476
69,0.6389,0.4633,0.6529,0.6377,0.873,0.5566,0.7419,0.5734,0.5612,0.7158,0.614,0.6263,0.6147,0.6265,0.7296,0.5796,0.7885,0.5655,0.6174,0.7246,0.5635,0.7978,0.5843,0.563,0.7085,0.4203,0.7519482374191284,0.6206209063529968,0.5141,0.5905,0.6836,0.5982,0.6012,0.7503
70,0.6325,0.4616,0.6514,0.6338,0.8769,0.5567,0.7423,0.575,0.5608,0.7175,0.6159,0.6262,0.6155,0.6252,0.7355,0.5849,0.7831,0.5723,0.6182,0.7347,0.5637,0.7984,0.5898,0.5627,0.7127,0.4138,0.7529132962226868,0.6218099594116211,0.5212,0.5907,0.6823,0.6008,0.6001,0.7555
71,0.6348,0.462,0.6516,0.6353,0.876,0.5572,0.748,0.5774,0.5619,0.7167,0.6154,0.6262,0.6153,0.6259,0.7333,0.5862,0.7822,0.5717,0.6214,0.7325,0.5627,0.8024,0.5867,0.562,0.7091,0.4153,0.7516247630119324,0.6204413771629333,0.5282,0.5913,0.6842,0.6005,0.6013,0.7535
72,0.6215,0.458,0.6498,0.6287,0.8819,0.5543,0.7351,0.5724,0.5568,0.7207,0.6179,0.6244,0.6167,0.6228,0.7453,0.5862,0.7787,0.5791,0.6127,0.7452,0.5629,0.7926,0.5977,0.5616,0.7188,0.4193,0.752495527267456,0.6213371157646179,0.5353,0.5886,0.6778,0.6031,0.5965,0.7624
73,0.6276,0.4587,0.6519,0.6313,0.8792,0.5564,0.737,0.5748,0.5594,0.7205,0.6171,0.6237,0.6163,0.6247,0.7395,0.5848,0.7825,0.5746,0.615,0.74,0.5645,0.7944,0.5939,0.5631,0.7159,0.4186,0.7522531151771545,0.6209720373153687,0.5424,0.5901,0.6793,0.6023,0.5987,0.759
74,0.6472,0.4628,0.6548,0.6445,0.8683,0.5615,0.7439,0.5788,0.5678,0.716,0.6125,0.6276,0.6143,0.6289,0.7234,0.5834,0.7862,0.5663,0.6263,0.7232,0.5628,0.8009,0.5803,0.5636,0.7008,0.4172,0.7528623342514038,0.6187416315078735,0.5495,0.5935,0.6843,0.5989,0.6062,0.7463
75,0.6412,0.4603,0.6548,0.6395,0.8731,0.5603,0.7399,0.5775,0.5652,0.718,0.6146,0.6257,0.6149,0.6265,0.7307,0.5868,0.7828,0.571,0.6249,0.7321,0.5649,0.7971,0.5867,0.5645,0.7077,0.4099,0.7499755620956421,0.6212812662124634,0.5564,0.5936,0.6812,0.601,0.6041,0.7523
76,0.6501,0.4616,0.6574,0.647,0.8672,0.5622,0.7433,0.5797,0.5683,0.7169,0.6143,0.6219,0.6157,0.63,0.7262,0.5815,0.7887,0.5651,0.624,0.7232,0.5633,0.7977,0.5804,0.5639,0.7022,0.4214,0.752781867980957,0.6184802651405334,0.5636,0.5943,0.6826,0.5997,0.6066,0.7471
77,0.6378,0.4588,0.6546,0.6367,0.8735,0.5589,0.7348,0.5757,0.5624,0.7204,0.6167,0.6189,0.6165,0.6271,0.7354,0.5845,0.786,0.5719,0.6186,0.735,0.5653,0.7897,0.5888,0.5642,0.7126,0.4115,0.7506360411643982,0.6205431222915649,0.5706,0.5926,0.6776,0.6015,0.6018,0.7554
78,0.6593,0.463,0.661,0.658,0.8629,0.5642,0.749,0.5823,0.5719,0.7149,0.6104,0.6299,0.6134,0.6303,0.7178,0.5847,0.7825,0.5664,0.6309,0.7221,0.5614,0.8053,0.5775,0.5638,0.6943,0.4159,0.7499033212661743,0.6205530762672424,0.5776,0.596,0.6859,0.6001,0.611,0.7424
79,0.6548,0.4607,0.6599,0.6519,0.8656,0.5634,0.745,0.5821,0.5693,0.7181,0.6143,0.6211,0.6158,0.6305,0.7262,0.5824,0.7859,0.5656,0.6245,0.7247,0.5627,0.7982,0.5798,0.5636,0.7004,0.4068,0.7486242055892944,0.6218897700309753,0.5845,0.5955,0.6822,0.6006,0.608,0.747
80,0.6528,0.4605,0.6591,0.65,0.869,0.5632,0.7448,0.5825,0.5689,0.7184,0.6122,0.6297,0.6136,0.6275,0.724,0.5887,0.7768,0.5711,0.6281,0.7329,0.562,0.8022,0.5821,0.5627,0.7004,0.4169,0.7524816393852234,0.6211994886398315,0.5916,0.5958,0.6828,0.6017,0.6074,0.7489
81,0.6674,0.4626,0.6656,0.6697,0.858,0.5668,0.7446,0.5838,0.5751,0.7158,0.609,0.627,0.613,0.6305,0.7154,0.5812,0.7848,0.5633,0.6289,0.72,0.5614,0.8002,0.5762,0.5644,0.6927,0.4128,0.7527626156806946,0.6181411147117615,0.5986,0.5972,0.6838,0.6004,0.6137,0.7404
82,0.651,0.458,0.6602,0.6477,0.8697,0.5617,0.7405,0.5812,0.5656,0.7213,0.6162,0.6197,0.6163,0.6285,0.7323,0.5861,0.778,0.5714,0.6199,0.739,0.565,0.7936,0.5876,0.5644,0.7087,0.4084,0.7503010034561157,0.6211495995521545,0.6056,0.596,0.678,0.6033,0.6052,0.7542
83,0.6678,0.4608,0.6667,0.6692,0.8586,0.5668,0.7405,0.5833,0.5738,0.7179,0.6114,0.621,0.6144,0.631,0.7203,0.5825,0.785,0.5651,0.6267,0.7242,0.5632,0.7942,0.5787,0.5649,0.6977,0.4212,0.7533181309700012,0.6194378733634949,0.6127,0.5983,0.6803,0.6016,0.6131,0.7437
84,0.6703,0.461,0.6677,0.6741,0.8562,0.5677,0.7415,0.5844,0.5754,0.7175,0.6109,0.6203,0.6145,0.6319,0.7185,0.5793,0.7862,0.5619,0.6251,0.7204,0.5627,0.7944,0.5773,0.565,0.6958,0.4115,0.7511087656021118,0.6210917830467224,0.6197,0.5982,0.6807,0.6012,0.6143,0.7417
85,0.6609,0.4581,0.664,0.6587,0.8643,0.5657,0.7411,0.5853,0.5707,0.7216,0.615,0.6192,0.6159,0.6298,0.7287,0.5829,0.7802,0.5672,0.6196,0.7336,0.5643,0.7934,0.5839,0.5644,0.7048,0.418,0.7484787702560425,0.6226917505264282,0.6268,0.5978,0.6784,0.6033,0.6086,0.7506
86,0.6653,0.459,0.6658,0.6649,0.8622,0.5662,0.7383,0.5841,0.5714,0.7212,0.6122,0.6252,0.614,0.6289,0.7235,0.5859,0.776,0.5691,0.6233,0.7348,0.5641,0.7939,0.5832,0.5648,0.7019,0.4125,0.7510213851928711,0.6208702921867371,0.6338,0.5987,0.6785,0.6032,0.6107,0.7487
87,0.6537,0.455,0.6631,0.6498,0.8689,0.5648,0.7321,0.5849,0.5668,0.7282,0.6187,0.614,0.618,0.6287,0.7388,0.5856,0.7775,0.574,0.616,0.7424,0.565,0.7846,0.5918,0.5637,0.7152,0.4116,0.747621476650238,0.6229590773582458,0.6407,0.5976,0.6726,0.6064,0.605,0.7587
88,0.6581,0.4557,0.6636,0.6548,0.866,0.5678,0.7374,0.5886,0.5709,0.7271,0.6181,0.6133,0.6177,0.6291,0.7372,0.5847,0.7787,0.5717,0.617,0.7404,0.5656,0.7874,0.5899,0.5645,0.7127,0.4116,0.7450243830680847,0.6244074702262878,0.6477,0.5989,0.6745,0.6063,0.6073,0.7567
89,0.6718,0.4583,0.6694,0.675,0.8579,0.5697,0.7406,0.5882,0.5752,0.7224,0.6127,0.6206,0.6148,0.6305,0.7237,0.585,0.7778,0.5682,0.6231,0.734,0.5646,0.7939,0.5824,0.5656,0.7013,0.4116,0.747587263584137,0.6216663122177124,0.6547,0.6008,0.6782,0.6046,0.6139,0.7479
90,0.6693,0.4573,0.6681,0.6707,0.8594,0.5708,0.7394,0.5905,0.5752,0.7253,0.6146,0.6183,0.6159,0.6305,0.7274,0.5854,0.778,0.5695,0.6216,0.7359,0.5647,0.7917,0.5839,0.5649,0.7046,0.4169,0.7499825954437256,0.6202119588851929,0.6617,0.601,0.6769,0.6056,0.6126,0.7505
91,0.6707,0.4568,0.6689,0.6729,0.8585,0.5717,0.7384,0.591,0.576,0.7258,0.615,0.6159,0.6161,0.6304,0.7288,0.5847,0.7795,0.5688,0.6217,0.7349,0.5655,0.7895,0.5844,0.5657,0.7053,0.4195,0.7424927353858948,0.625989556312561,0.6689,0.6015,0.676,0.6058,0.6133,0.7507
92,0.6715,0.4565,0.6693,0.6744,0.8582,0.5722,0.7405,0.5926,0.5762,0.7264,0.615,0.6162,0.616,0.6302,0.7291,0.5862,0.7766,0.57,0.6223,0.7371,0.5655,0.7914,0.5851,0.5657,0.7046,0.4152,0.7431408166885376,0.6251356601715088,0.6759,0.6021,0.6762,0.6066,0.6138,0.7511
93,0.677,0.4587,0.6716,0.6883,0.8506,0.575,0.7366,0.592,0.5807,0.7252,0.6112,0.6177,0.6145,0.6318,0.7206,0.5807,0.7824,0.5636,0.623,0.7267,0.566,0.789,0.5809,0.568,0.699,0.411,0.7499033808708191,0.6199566125869751,0.6829,0.602,0.6769,0.6045,0.6184,0.7444
94,0.6726,0.4565,0.6695,0.6773,0.8552,0.577,0.7328,0.5969,0.5792,0.7328,0.6147,0.613,0.6161,0.6306,0.7285,0.5809,0.7833,0.5656,0.6182,0.7321,0.566,0.7844,0.5841,0.5662,0.7066,0.4143,0.7434454560279846,0.6229451298713684,0.6899,0.6022,0.674,0.6064,0.6143,0.751
95,0.6754,0.4577,0.6702,0.6862,0.8508,0.5773,0.7409,0.5975,0.5819,0.7284,0.6121,0.6161,0.6147,0.6303,0.7238,0.582,0.7806,0.5652,0.6218,0.7301,0.5653,0.7899,0.5822,0.5666,0.7012,0.4136,0.742842435836792,0.6236473917961121,0.6969,0.6024,0.677,0.606,0.6174,0.7469
96,0.6736,0.4568,0.6694,0.6809,0.8534,0.5784,0.7367,0.6009,0.58,0.7341,0.6137,0.6153,0.6154,0.6299,0.7278,0.5845,0.7795,0.5683,0.6214,0.7358,0.5659,0.7865,0.5848,0.5661,0.7058,0.4156,0.7477344870567322,0.6203635931015015,0.7039,0.6032,0.675,0.6078,0.6157,0.7514
97,0.673,0.4558,0.6696,0.6787,0.854,0.5785,0.7271,0.6028,0.5775,0.7398,0.6149,0.6105,0.6161,0.6302,0.7307,0.5812,0.7833,0.5671,0.6161,0.736,0.5674,0.7784,0.5866,0.567,0.7106,0.4071,0.7473639249801636,0.6221670508384705,0.7108,0.603,0.671,0.6084,0.6139,0.7542
98,0.6714,0.4552,0.6687,0.6752,0.8569,0.5784,0.7367,0.6048,0.5781,0.7372,0.6161,0.6149,0.6163,0.6286,0.7349,0.5904,0.7733,0.5754,0.622,0.7458,0.5666,0.7861,0.5903,0.5659,0.711,0.4153,0.7455456256866455,0.6239785552024841,0.7179,0.6046,0.6732,0.6111,0.614,0.7572
99,0.6689,0.4535,0.6681,0.6697,0.8605,0.5773,0.7347,0.6109,0.5748,0.7423,0.6177,0.6143,0.6171,0.6277,0.7401,0.5911,0.7701,0.578,0.6195,0.7497,0.5663,0.7848,0.5948,0.565,0.7151,0.412,0.7423139214515686,0.6251575946807861,0.7249,0.6043,0.6715,0.6138,0.6113,0.7615
100,0.6713,0.454,0.6686,0.6754,0.8555,0.5812,0.7312,0.6122,0.5786,0.7434,0.6173,0.6085,0.6172,0.629,0.7376,0.5858,0.7778,0.5725,0.6178,0.7419,0.5674,0.7787,0.5916,0.5662,0.7148,0.4108,0.7440168857574463,0.6253012418746948,0.7318,0.6046,0.67,0.6124,0.6134,0.7586
101,0.6761,0.4576,0.6703,0.6937,0.8442,0.584,0.7337,0.606,0.585,0.7368,0.6103,0.6131,0.6141,0.6311,0.7209,0.5836,0.7817,0.5668,0.6235,0.7317,0.5676,0.7828,0.583,0.569,0.7024,0.4126,0.7467605471611023,0.6209182143211365,0.7388,0.6043,0.6738,0.608,0.6205,0.7472
102,0.6739,0.4548,0.6697,0.6813,0.8531,0.581,0.7354,0.6094,0.5798,0.7392,0.6159,0.6116,0.6163,0.6286,0.7355,0.5914,0.773,0.5763,0.6236,0.7448,0.5675,0.7818,0.5916,0.5666,0.7125,0.4127,0.7464426755905151,0.6238069534301758,0.7458,0.6059,0.6713,0.6127,0.616,0.757
103,0.6762,0.4562,0.6705,0.6915,0.8465,0.5839,0.7412,0.61,0.5847,0.7353,0.6135,0.6109,0.6155,0.6307,0.7278,0.5883,0.7755,0.5718,0.6245,0.7393,0.5673,0.7853,0.5858,0.5678,0.7053,0.4149,0.7405388355255127,0.6262388825416565,0.7529,0.6058,0.6738,0.6107,0.6198,0.7508
104,0.6752,0.4543,0.6707,0.6832,0.8538,0.5813,0.7405,0.615,0.5791,0.7401,0.6161,0.6139,0.6162,0.6282,0.7358,0.5956,0.767,0.5808,0.6253,0.7516,0.5666,0.7859,0.5922,0.5657,0.7114,0.4134,0.7441551089286804,0.625339150428772,0.7599,0.607,0.6723,0.615,0.6163,0.7585
105,0.676,0.4559,0.6704,0.6906,0.847,0.5863,0.7319,0.612,0.5852,0.7403,0.6129,0.6138,0.6146,0.6286,0.7287,0.5915,0.7737,0.575,0.627,0.7423,0.5681,0.7793,0.5882,0.568,0.7086,0.4094,0.7470603585243225,0.622951090335846,0.7668,0.607,0.6709,0.612,0.6199,0.7534
106,0.6704,0.4521,0.6684,0.6732,0.8571,0.5828,0.7325,0.6251,0.5781,0.7477,0.6193,0.6074,0.6183,0.6272,0.7461,0.5954,0.7684,0.5834,0.6226,0.7543,0.5688,0.7759,0.6004,0.5669,0.72,0.4125,0.7450644373893738,0.623266339302063,0.7738,0.6073,0.6673,0.6191,0.6136,0.765
107,0.675,0.4542,0.6699,0.6861,0.85,0.587,0.7384,0.6189,0.5848,0.7413,0.6163,0.6095,0.6165,0.6285,0.7367,0.5946,0.7701,0.5792,0.6264,0.7483,0.5689,0.78,0.5923,0.568,0.7123,0.4098,0.7413546442985535,0.6268892884254456,0.7808,0.6084,0.6704,0.6154,0.6188,0.7577
108,0.676,0.4545,0.6703,0.6901,0.8482,0.5871,0.7418,0.619,0.5855,0.7392,0.6143,0.6144,0.6152,0.6284,0.7314,0.5956,0.7669,0.5794,0.6279,0.7491,0.5682,0.786,0.5904,0.5679,0.708,0.4157,0.7438032627105713,0.6253331899642944,0.7878,0.6082,0.6727,0.6149,0.62,0.7552
109,0.6744,0.4529,0.6698,0.6832,0.8526,0.5862,0.7357,0.6238,0.5824,0.7445,0.6163,0.6139,0.6161,0.6272,0.7378,0.5963,0.7662,0.5816,0.6258,0.7521,0.5687,0.7815,0.5951,0.5675,0.7137,0.4137,0.7424904704093933,0.6247047185897827,0.7948,0.6084,0.67,0.6173,0.6172,0.7601
110,0.6728,0.4519,0.669,0.6794,0.8542,0.5871,0.7335,0.6323,0.5816,0.7484,0.6176,0.6122,0.617,0.6272,0.7407,0.5955,0.7667,0.582,0.6237,0.7523,0.5685,0.7788,0.5973,0.5669,0.7169,0.4113,0.7418686151504517,0.6250319480895996,0.8018,0.6083,0.6686,0.6195,0.6158,0.7625
111,0.6753,0.4532,0.6702,0.6865,0.8501,0.5905,0.7301,0.6349,0.5843,0.75,0.6152,0.613,0.6155,0.6275,0.7349,0.5968,0.7693,0.5818,0.6274,0.751,0.5707,0.7771,0.595,0.5695,0.7144,0.4159,0.7462542057037354,0.6238887906074524,0.8089,0.6097,0.6685,0.6195,0.619,0.7601
112,0.6758,0.4552,0.67,0.6945,0.8442,0.594,0.7344,0.6279,0.5903,0.7451,0.6111,0.6209,0.6131,0.6277,0.7254,0.5947,0.7684,0.5771,0.6303,0.7461,0.5696,0.7844,0.5892,0.5702,0.7057,0.4118,0.7446161508560181,0.6229590773582458,0.8158,0.609,0.6727,0.6155,0.6226,0.7533
113,0.6753,0.455,0.6696,0.6952,0.8429,0.5944,0.7376,0.6286,0.5911,0.7436,0.6112,0.6189,0.6133,0.6277,0.7255,0.594,0.7691,0.5764,0.6303,0.745,0.5693,0.7852,0.5889,0.57,0.7053,0.4177,0.7389828562736511,0.627577543258667,0.8229,0.6088,0.6732,0.6154,0.6229,0.7525
114,0.6742,0.4538,0.6687,0.6887,0.8464,0.5968,0.7314,0.6427,0.5897,0.7513,0.6142,0.6145,0.6149,0.6277,0.7325,0.5956,0.7706,0.5794,0.6288,0.7479,0.571,0.7781,0.5934,0.5703,0.7123,0.4151,0.7442377805709839,0.6238588690757751,0.83,0.6104,0.6697,0.6198,0.621,0.7581
115,0.6751,0.4531,0.6696,0.6895,0.8461,0.5979,0.7286,0.6527,0.5892,0.7545,0.6151,0.609,0.6157,0.6282,0.7347,0.5929,0.7738,0.5775,0.626,0.7455,0.572,0.7743,0.5939,0.571,0.7144,0.4111,0.741669774055481,0.6267136931419373,0.8369,0.6106,0.6678,0.6219,0.6208,0.759
116,0.6739,0.4516,0.6692,0.6835,0.8504,0.5964,0.7296,0.6603,0.5869,0.7553,0.6169,0.6088,0.6164,0.6264,0.741,0.5974,0.7689,0.5833,0.627,0.752,0.5713,0.774,0.5984,0.5696,0.7178,0.4112,0.7409565448760986,0.6273341774940491,0.8439,0.6112,0.6666,0.6255,0.6187,0.7633
117,0.6759,0.4522,0.6703,0.6901,0.847,0.5977,0.7292,0.6647,0.5877,0.7561,0.6155,0.6094,0.6157,0.6274,0.7365,0.5952,0.7691,0.5808,0.6258,0.7504,0.5711,0.7748,0.5955,0.5698,0.7154,0.4111,0.7412068247795105,0.6279745697975159,0.8509,0.6111,0.6669,0.6254,0.6202,0.7611
118,0.6765,0.4516,0.671,0.6889,0.8492,0.5957,0.728,0.6763,0.585,0.7575,0.6154,0.6101,0.6155,0.6266,0.7375,0.5969,0.7662,0.5835,0.6252,0.7545,0.5702,0.7745,0.5963,0.5688,0.7163,0.4106,0.7418361902236938,0.6282638311386108,0.8579,0.6109,0.6661,0.6285,0.6189,0.763
119,0.6768,0.453,0.6708,0.696,0.8432,0.5973,0.7297,0.6667,0.5871,0.7559,0.6128,0.6118,0.6144,0.6285,0.7296,0.5946,0.7675,0.5794,0.6258,0.7516,0.5716,0.7776,0.5928,0.5711,0.7113,0.4114,0.7379587888717651,0.6291297078132629,0.8648,0.6106,0.6679,0.6248,0.6217,0.7583
120,0.6756,0.4543,0.67,0.7,0.8389,0.6009,0.7345,0.6619,0.5912,0.7531,0.6107,0.6142,0.6134,0.6287,0.7246,0.5927,0.7678,0.5762,0.6265,0.7469,0.5704,0.7811,0.5895,0.5708,0.7069,0.4117,0.7409560084342957,0.6265361905097961,0.8718,0.6101,0.6704,0.6222,0.6234,0.7541
121,0.6754,0.4497,0.6708,0.6841,0.8519,0.5951,0.7239,0.6901,0.5838,0.7596,0.6171,0.6075,0.6164,0.6254,0.7435,0.5997,0.7637,0.5886,0.6256,0.7586,0.57,0.7709,0.6004,0.5681,0.7203,0.4213,0.7427830696105957,0.6277810335159302,0.879,0.6115,0.6631,0.6333,0.6174,0.7668
122,0.6764,0.4531,0.6705,0.697,0.8418,0.6035,0.728,0.6683,0.5927,0.7564,0.6135,0.6099,0.6146,0.6273,0.7325,0.5937,0.7691,0.578,0.6266,0.7482,0.5722,0.7731,0.5934,0.5715,0.7128,0.4137,0.7418704628944397,0.6280284523963928,0.886,0.6119,0.6666,0.625,0.623,0.7583
123,0.6772,0.451,0.6715,0.6917,0.8471,0.6009,0.7237,0.6821,0.5891,0.7592,0.6152,0.6076,0.6152,0.6258,0.7381,0.5973,0.7674,0.5838,0.6265,0.7538,0.5721,0.7701,0.5975,0.5705,0.718,0.417,0.7352821826934814,0.6316753625869751,0.8931,0.6125,0.664,0.63,0.6207,0.7632
124,0.6768,0.4498,0.6714,0.6879,0.8509,0.5991,0.7302,0.6822,0.5875,0.7564,0.6164,0.6116,0.6157,0.624,0.7433,0.6028,0.7583,0.5898,0.6288,0.7619,0.5697,0.7754,0.5997,0.5681,0.7168,0.4084,0.7395594120025635,0.6300134658813477,0.9,0.613,0.6651,0.6318,0.6193,0.7659
125,0.6741,0.4556,0.6696,0.7057,0.8327,0.6062,0.7349,0.6578,0.5973,0.7521,0.6081,0.6131,0.6121,0.6282,0.7205,0.5909,0.7695,0.5731,0.6294,0.7414,0.5716,0.7791,0.5877,0.5732,0.7038,0.4138,0.7387082576751709,0.6288344264030457,0.907,0.6102,0.6704,0.6201,0.6268,0.7501
126,0.6755,0.4489,0.6708,0.6844,0.8515,0.5992,0.7226,0.6863,0.5873,0.7588,0.6178,0.6052,0.6168,0.6243,0.7474,0.6012,0.7622,0.5907,0.626,0.7615,0.5701,0.7672,0.6011,0.5682,0.7218,0.4149,0.7362548112869263,0.6304523944854736,0.914,0.6128,0.6612,0.6331,0.618,0.7682
127,0.6771,0.4513,0.6711,0.6944,0.8451,0.6051,0.7251,0.6785,0.593,0.758,0.6137,0.6123,0.614,0.6249,0.7352,0.6006,0.7637,0.5858,0.63,0.7568,0.5725,0.7723,0.5969,0.5712,0.7158,0.4092,0.7412236928939819,0.628132164478302,0.921,0.6138,0.6649,0.6293,0.6227,0.7622
128,0.6768,0.4489,0.6716,0.6877,0.8501,0.6011,0.721,0.689,0.5888,0.7594,0.6166,0.6069,0.6159,0.6244,0.7433,0.6005,0.7631,0.5892,0.6265,0.7598,0.5721,0.7675,0.6012,0.57,0.721,0.414,0.7374163866043091,0.6325950622558594,0.928,0.6134,0.6615,0.6334,0.6195,0.7667
129,0.6766,0.4515,0.6707,0.6952,0.8435,0.607,0.7258,0.6745,0.5953,0.7567,0.6135,0.6092,0.6139,0.6243,0.7362,0.5986,0.7659,0.5829,0.6299,0.7537,0.5732,0.7695,0.5966,0.5719,0.7153,0.4179,0.741578996181488,0.6278867721557617,0.9351,0.6138,0.6644,0.6277,0.6233,0.7611
130,0.6769,0.4518,0.6709,0.6976,0.842,0.6084,0.7296,0.6713,0.5973,0.755,0.6133,0.6089,0.6138,0.6243,0.7356,0.5994,0.7651,0.5828,0.6323,0.7528,0.5731,0.7714,0.5952,0.5722,0.7134,0.4107,0.7383595705032349,0.6315895318984985,0.9421,0.6142,0.6654,0.6268,0.6247,0.7598
131,0.6768,0.4521,0.6708,0.6981,0.8419,0.608,0.7316,0.6717,0.5968,0.754,0.6118,0.6139,0.6127,0.6238,0.7324,0.5998,0.763,0.5825,0.6334,0.753,0.5729,0.7767,0.5952,0.5724,0.7108,0.414,0.7363801598548889,0.6313601136207581,0.9491,0.6139,0.6675,0.6266,0.6249,0.7584
132,0.6729,0.4561,0.6691,0.708,0.8296,0.6106,0.7326,0.6579,0.6022,0.7515,0.6043,0.619,0.6096,0.6263,0.7137,0.5946,0.7687,0.5756,0.638,0.739,0.5734,0.7804,0.5887,0.5764,0.701,0.4121,0.7381948232650757,0.631310224533081,0.9561,0.6112,0.6714,0.6202,0.6302,0.747
133,0.6755,0.4531,0.6701,0.7021,0.837,0.6107,0.7315,0.6655,0.6007,0.7529,0.6109,0.6139,0.6127,0.626,0.7273,0.597,0.7658,0.579,0.6341,0.7472,0.5744,0.7762,0.5934,0.5747,0.7088,0.4134,0.7379825711250305,0.630739688873291,0.9631,0.6137,0.6681,0.6241,0.6275,0.7546
134,0.6753,0.4535,0.67,0.7033,0.8358,0.611,0.7308,0.661,0.602,0.7523,0.6097,0.6147,0.612,0.6256,0.7251,0.5981,0.7668,0.5793,0.6381,0.745,0.5747,0.7759,0.5927,0.5757,0.707,0.414,0.7379853129386902,0.6313621401786804,0.9701,0.6138,0.6683,0.623,0.6289,0.753
135,0.6768,0.4518,0.6709,0.7004,0.8399,0.6103,0.7319,0.6655,0.6005,0.7518,0.6126,0.6096,0.6134,0.6245,0.7335,0.5985,0.7636,0.5814,0.6323,0.752,0.5731,0.7727,0.5946,0.5725,0.7114,0.4094,0.7395758032798767,0.6298857927322388,0.9771,0.6143,0.6659,0.6252,0.626,0.7577
136,0.6779,0.4502,0.6718,0.6973,0.8434,0.6112,0.7213,0.6772,0.5989,0.7569,0.6131,0.6098,0.6135,0.6238,0.7357,0.6015,0.7625,0.5856,0.6331,0.755,0.5739,0.7679,0.5975,0.5726,0.7154,0.4109,0.7349373698234558,0.6333052515983582,0.9841,0.6155,0.6623,0.6291,0.6251,0.7613
137,0.6761,0.453,0.6706,0.7037,0.8366,0.6121,0.7275,0.6645,0.6024,0.753,0.6097,0.614,0.6119,0.6253,0.726,0.5997,0.7639,0.5815,0.6365,0.7495,0.5755,0.7726,0.5945,0.5758,0.7091,0.4168,0.7429361939430237,0.6289241909980774,0.9911,0.6146,0.6662,0.6246,0.6287,0.7548
138,0.6776,0.4477,0.6723,0.6887,0.8507,0.6101,0.7234,0.6826,0.5974,0.7561,0.6158,0.6094,0.615,0.6219,0.745,0.6078,0.7566,0.5937,0.6349,0.7629,0.5716,0.7678,0.6022,0.5696,0.7185,0.4125,0.7347179055213928,0.6335626244544983,0.9981,0.6166,0.661,0.6332,0.6225,0.7666
139,0.6748,0.4536,0.67,0.7058,0.8333,0.6135,0.7297,0.6604,0.6052,0.7515,0.6085,0.6142,0.6115,0.6261,0.7218,0.5982,0.7665,0.579,0.6403,0.7432,0.5745,0.7754,0.5907,0.5762,0.7046,0.4107,0.733275830745697,0.6336963176727295,1.0051,0.6139,0.6679,0.6223,0.6307,0.7509
140,0.6762,0.4508,0.6704,0.6971,0.8402,0.6139,0.7199,0.6734,0.6023,0.7564,0.6139,0.6023,0.6145,0.6252,0.7367,0.5999,0.769,0.5838,0.6346,0.7501,0.5769,0.7633,0.5975,0.5756,0.7161,0.4115,0.7392957806587219,0.630905270576477,1.0121,0.6162,0.6611,0.6279,0.627,0.7599
141,0.6781,0.4495,0.672,0.6959,0.8442,0.6135,0.7193,0.6757,0.6014,0.7565,0.614,0.6061,0.6139,0.6229,0.7393,0.6061,0.7636,0.5894,0.6393,0.755,0.5753,0.7646,0.5986,0.5738,0.7161,0.4166,0.736519992351532,0.6318309307098389,1.0191,0.6174,0.6606,0.6299,0.6267,0.7622
142,0.6767,0.4511,0.6709,0.7008,0.8391,0.6144,0.7273,0.6685,0.6043,0.7528,0.6113,0.609,0.6127,0.6243,0.7308,0.6021,0.7642,0.5839,0.639,0.7494,0.5761,0.7712,0.596,0.5757,0.7114,0.4095,0.7350463271141052,0.6343187689781189,1.0261,0.6161,0.6646,0.6264,0.6288,0.7567
143,0.6749,0.4532,0.6699,0.7043,0.8335,0.6173,0.7208,0.6635,0.6083,0.7543,0.6088,0.608,0.612,0.6262,0.7233,0.5986,0.7717,0.5797,0.6412,0.7424,0.5772,0.767,0.593,0.5782,0.7096,0.4145,0.7376420497894287,0.6319067478179932,1.0331,0.6154,0.6641,0.6236,0.6316,0.7526
144,0.6768,0.4509,0.6709,0.6997,0.8398,0.6161,0.7203,0.6755,0.6043,0.756,0.6104,0.6109,0.6119,0.6235,0.7292,0.6041,0.7638,0.5857,0.641,0.7512,0.5777,0.7689,0.5975,0.5774,0.7122,0.4184,0.7362412810325623,0.6308214664459229,1.0402,0.617,0.663,0.6283,0.6292,0.7577
145,0.6774,0.4498,0.6714,0.6972,0.8418,0.6162,0.7151,0.6776,0.6038,0.7576,0.613,0.6056,0.6135,0.6236,0.736,0.6054,0.7658,0.5882,0.6408,0.7532,0.579,0.7627,0.6,0.5777,0.7166,0.4189,0.7337146997451782,0.6348733305931091,1.0474,0.6182,0.6598,0.6301,0.6286,0.761
146,0.6765,0.4527,0.6712,0.7068,0.8346,0.6164,0.7242,0.6632,0.6077,0.7523,0.6076,0.6127,0.6107,0.624,0.7224,0.6023,0.7644,0.5825,0.6454,0.7446,0.5774,0.7723,0.5935,0.5793,0.706,0.4148,0.735562264919281,0.6329860687255859,1.0544,0.616,0.6653,0.6242,0.6326,0.752
147,0.6761,0.4522,0.6707,0.7038,0.835,0.6192,0.7145,0.6656,0.6094,0.7562,0.6108,0.6049,0.6128,0.6253,0.7288,0.5996,0.7708,0.5804,0.643,0.7422,0.5804,0.7618,0.5958,0.5811,0.7121,0.4183,0.7348594665527344,0.6323915719985962,1.0615,0.6172,0.6608,0.6251,0.6325,0.7549
148,0.6766,0.4498,0.6707,0.6972,0.8411,0.6203,0.7193,0.6676,0.611,0.7543,0.6139,0.6053,0.6138,0.6228,0.7387,0.6056,0.7642,0.587,0.644,0.7509,0.5778,0.7626,0.5985,0.5768,0.7146,0.4148,0.7352551221847534,0.6343606114387512,1.0686,0.6188,0.6602,0.6275,0.6304,0.7599
149,0.6761,0.4528,0.671,0.7074,0.8337,0.6201,0.7243,0.661,0.6132,0.7514,0.6075,0.6135,0.6105,0.6239,0.7219,0.6029,0.7647,0.5827,0.6486,0.7428,0.5763,0.7716,0.592,0.5784,0.7049,0.7297,0.7377970814704895,0.6318508982658386,1.0808,0.6166,0.6654,0.6234,0.6343,0.7509
150,0.6767,0.4517,0.6712,0.705,0.836,0.6197,0.7185,0.6661,0.6105,0.754,0.609,0.6123,0.6113,0.6241,0.725,0.6027,0.7649,0.5829,0.6461,0.7451,0.5779,0.7687,0.5945,0.5792,0.7082,0.5612,0.735763669013977,0.6346479058265686,1.0903,0.6172,0.6632,0.6252,0.633,0.7537
151,0.6767,0.4521,0.6715,0.7079,0.8341,0.6202,0.7204,0.6635,0.6121,0.7528,0.6067,0.6138,0.61,0.6236,0.7207,0.6016,0.7642,0.5817,0.6465,0.7431,0.5764,0.771,0.5918,0.5786,0.7053,0.5089,0.7333446741104126,0.6356693506240845,1.0989,0.6163,0.6643,0.6237,0.6337,0.7512
152,0.6766,0.4515,0.6712,0.7058,0.8346,0.6194,0.7167,0.6673,0.6098,0.7546,0.6081,0.6076,0.6113,0.6248,0.7237,0.6002,0.7681,0.5806,0.6445,0.7419,0.5783,0.7666,0.5937,0.5796,0.7089,0.4667,0.7325604557991028,0.6343725919723511,1.1068,0.6165,0.6621,0.6248,0.6329,0.7527
153,0.6763,0.4516,0.6709,0.7056,0.835,0.6205,0.7212,0.6637,0.6127,0.752,0.6069,0.6125,0.6101,0.6232,0.7217,0.6018,0.7648,0.5818,0.6468,0.7428,0.577,0.771,0.5931,0.5787,0.7067,0.4395,0.7335975766181946,0.6330738663673401,1.1143,0.6165,0.6642,0.6239,0.6334,0.7516
154,0.6773,0.4499,0.6715,0.7024,0.8385,0.6208,0.7164,0.6711,0.6106,0.7548,0.6092,0.6118,0.6112,0.6233,0.7261,0.6044,0.7631,0.5848,0.6462,0.7469,0.5785,0.7686,0.5965,0.5789,0.7104,0.4346,0.7321022748947144,0.6345821022987366,1.1217,0.618,0.662,0.627,0.6323,0.7553
155,0.6772,0.45,0.6713,0.7014,0.8386,0.6213,0.7159,0.671,0.6112,0.7548,0.6098,0.6084,0.6117,0.6236,0.7279,0.6067,0.7632,0.5874,0.6469,0.7493,0.5792,0.7655,0.5978,0.5791,0.7122,0.4362,0.7381806373596191,0.6338438987731934,1.129,0.6188,0.6606,0.6278,0.6324,0.7566
156,0.6782,0.4497,0.6721,0.7029,0.8394,0.6201,0.7188,0.6711,0.6099,0.7535,0.6089,0.6127,0.6108,0.6225,0.7261,0.6082,0.7594,0.588,0.6502,0.7498,0.5781,0.7703,0.5967,0.5788,0.7086,0.4207,0.7341272830963135,0.6338139772415161,1.1362,0.6187,0.6622,0.6277,0.6329,0.7555
157,0.6777,0.4503,0.6718,0.7042,0.8377,0.6207,0.7205,0.6682,0.6117,0.7524,0.6085,0.6111,0.6109,0.6232,0.7249,0.6059,0.7618,0.5857,0.6495,0.7468,0.5786,0.7704,0.596,0.5796,0.7083,0.4216,0.7341061234474182,0.6343685984611511,1.1434,0.6183,0.6628,0.6265,0.6336,0.754
158,0.6762,0.4519,0.6709,0.7056,0.8342,0.6225,0.7171,0.6654,0.6146,0.7532,0.6069,0.6081,0.6107,0.6244,0.7212,0.6004,0.7691,0.5804,0.6472,0.7394,0.579,0.7665,0.5938,0.5807,0.7086,0.4169,0.7351851463317871,0.6342130303382874,1.1504,0.617,0.6625,0.6242,0.6345,0.7513
159,0.6772,0.4502,0.6714,0.7023,0.8381,0.6233,0.7127,0.6698,0.6138,0.7553,0.6078,0.6116,0.6103,0.6221,0.7244,0.6053,0.7644,0.5851,0.6495,0.7455,0.5789,0.7656,0.596,0.5797,0.7101,0.4166,0.73583984375,0.6331536769866943,1.1575,0.6185,0.6609,0.6265,0.6335,0.7547
160,0.6773,0.45,0.6714,0.7024,0.8383,0.6226,0.7159,0.6662,0.6143,0.7535,0.6084,0.612,0.6105,0.6221,0.725,0.6051,0.7631,0.5848,0.6501,0.7449,0.5791,0.7671,0.596,0.58,0.7096,0.4151,0.7351653575897217,0.6339735984802246,1.1646,0.6185,0.6616,0.6258,0.6338,0.7543
161,0.6793,0.4465,0.6732,0.6947,0.8468,0.6244,0.7154,0.6758,0.6138,0.755,0.6128,0.6069,0.6125,0.6192,0.741,0.6104,0.7581,0.5912,0.6482,0.7547,0.578,0.7622,0.6014,0.5766,0.7154,0.4134,0.7318761348724365,0.6362858414649963,1.1717,0.621,0.6578,0.6308,0.6305,0.7626
162,0.6782,0.4493,0.6721,0.7011,0.8396,0.6239,0.7118,0.6729,0.6136,0.7554,0.6109,0.6048,0.6122,0.6229,0.7317,0.6049,0.7663,0.5849,0.6488,0.7449,0.5813,0.7611,0.5986,0.5814,0.7134,0.4145,0.735119640827179,0.6363077759742737,1.1787,0.6198,0.6587,0.6281,0.6336,0.757
163,0.6787,0.4493,0.6725,0.7035,0.8393,0.6239,0.715,0.6745,0.6135,0.7545,0.6079,0.6112,0.6102,0.6217,0.725,0.6064,0.7616,0.5861,0.6506,0.7467,0.5791,0.7679,0.5965,0.5799,0.7093,0.4184,0.7352210283279419,0.6343327164649963,1.1858,0.6192,0.661,0.628,0.6338,0.755
164,0.6785,0.4497,0.6723,0.7034,0.8395,0.6225,0.7204,0.6678,0.6144,0.751,0.6081,0.6146,0.6101,0.6215,0.7248,0.6082,0.7586,0.5876,0.6526,0.7486,0.5779,0.7711,0.5966,0.5788,0.7077,0.4128,0.7365368008613586,0.6340892910957336,1.1928,0.619,0.6629,0.6269,0.6341,0.7543
165,0.6777,0.4498,0.6718,0.7032,0.8381,0.6242,0.717,0.6704,0.6154,0.7532,0.6076,0.6113,0.6101,0.6221,0.7239,0.6052,0.7627,0.5848,0.6506,0.7448,0.579,0.7682,0.5959,0.58,0.709,0.4175,0.7318041920661926,0.6370399594306946,1.1999,0.6187,0.6618,0.6266,0.6343,0.7538
166,0.6773,0.45,0.6715,0.7025,0.8378,0.625,0.7132,0.6683,0.6166,0.7541,0.6079,0.6095,0.6105,0.6226,0.7242,0.6054,0.7652,0.5849,0.6518,0.7436,0.5802,0.764,0.5965,0.5812,0.7109,0.416,0.7333360910415649,0.6363676190376282,1.2069,0.6192,0.6604,0.6263,0.6349,0.7541
167,0.6794,0.4466,0.6731,0.697,0.8447,0.6254,0.7109,0.6805,0.6136,0.7564,0.6113,0.6084,0.6119,0.6215,0.7333,0.6098,0.7597,0.5901,0.6498,0.752,0.5796,0.7629,0.6009,0.5785,0.7156,0.4254,0.7312366366386414,0.6392524242401123,1.2142,0.6211,0.6577,0.6313,0.6321,0.7604
168,0.6793,0.4471,0.673,0.6994,0.8429,0.6249,0.7138,0.6753,0.6145,0.7545,0.61,0.609,0.6111,0.6211,0.7305,0.6084,0.7583,0.5884,0.6496,0.7501,0.5788,0.7646,0.599,0.5784,0.7126,0.4009,0.7334168553352356,0.6379915475845337,1.2211,0.6203,0.6586,0.6294,0.6326,0.7581
169,0.6768,0.4507,0.6713,0.7048,0.8349,0.625,0.7126,0.6638,0.6184,0.7529,0.6072,0.6037,0.6108,0.6235,0.723,0.6007,0.7704,0.5807,0.6485,0.7388,0.5798,0.7607,0.5943,0.5809,0.7108,0.4175,0.7307511568069458,0.6354060173034668,1.2282,0.6179,0.6596,0.6242,0.6352,0.7521
170,0.6783,0.4475,0.6722,0.6984,0.8421,0.624,0.7171,0.6681,0.6162,0.7514,0.6113,0.6052,0.6122,0.6221,0.7327,0.6068,0.7621,0.5867,0.65,0.7475,0.5792,0.7633,0.5992,0.5786,0.7138,0.4146,0.7295893430709839,0.636768639087677,1.2353,0.6199,0.659,0.6277,0.6331,0.7575
171,0.6769,0.4514,0.6716,0.708,0.8331,0.6258,0.7151,0.6635,0.6199,0.7518,0.6046,0.6055,0.6096,0.6233,0.7179,0.5982,0.7705,0.578,0.65,0.7344,0.5797,0.7648,0.5932,0.5819,0.7076,0.4161,0.733780026435852,0.6370220184326172,1.2423,0.617,0.6615,0.6232,0.6366,0.749
172,0.6796,0.4442,0.674,0.6923,0.8482,0.6251,0.7077,0.6825,0.6127,0.7569,0.6126,0.601,0.6124,0.6191,0.7416,0.6123,0.7591,0.5932,0.6502,0.7547,0.5796,0.7575,0.6036,0.5776,0.7189,0.4142,0.7298186421394348,0.6386678814888,1.2493,0.6218,0.6539,0.6331,0.6304,0.7641
173,0.6774,0.4498,0.6716,0.7038,0.8362,0.6265,0.7097,0.6666,0.619,0.754,0.6075,0.6043,0.6107,0.6229,0.7237,0.6023,0.7693,0.5817,0.6526,0.7383,0.5807,0.7609,0.5951,0.5822,0.7102,0.423,0.7316702008247375,0.6370120048522949,1.2565,0.6189,0.6588,0.6251,0.6361,0.7525
174,0.6792,0.4466,0.673,0.6982,0.8425,0.6269,0.708,0.6758,0.6164,0.7559,0.6121,0.6017,0.6128,0.6224,0.7344,0.6066,0.7642,0.5862,0.6521,0.7447,0.5813,0.7586,0.5996,0.5809,0.7148,0.4129,0.7346921563148499,0.6348913311958313,1.2635,0.6212,0.6558,0.6295,0.634,0.7585
175,0.6796,0.4471,0.6733,0.7017,0.8408,0.6262,0.7105,0.6689,0.618,0.7541,0.6115,0.6046,0.6123,0.6223,0.7325,0.6067,0.7635,0.5859,0.6543,0.7438,0.5812,0.7605,0.598,0.5816,0.7124,0.4074,0.7304329872131348,0.6391746401786804,1.2705,0.621,0.6572,0.6277,0.6356,0.7567
176,0.6806,0.4441,0.6745,0.6958,0.8465,0.6263,0.7081,0.6762,0.6157,0.7554,0.6133,0.601,0.613,0.6202,0.7413,0.6089,0.7595,0.5891,0.6504,0.7499,0.5806,0.7573,0.6021,0.5791,0.7173,0.4138,0.7315210103988647,0.6364514231681824,1.2775,0.6219,0.654,0.631,0.6322,0.7621
177,0.6795,0.4469,0.6732,0.7024,0.8405,0.6273,0.7062,0.669,0.619,0.7552,0.6099,0.6084,0.6112,0.6219,0.7285,0.6075,0.7628,0.5865,0.6556,0.744,0.5815,0.7602,0.5978,0.5821,0.7121,0.4099,0.7318769693374634,0.6361780762672424,1.2845,0.6211,0.6569,0.6275,0.6362,0.7561
178,0.6792,0.4482,0.673,0.7054,0.8382,0.6249,0.718,0.6635,0.6194,0.7496,0.6083,0.6082,0.6106,0.6223,0.7247,0.6052,0.7617,0.5843,0.655,0.7403,0.5793,0.7667,0.5953,0.5809,0.7076,0.415,0.7368728518486023,0.6354080438613892,1.2916,0.6194,0.6606,0.6253,0.6366,0.7521
179,0.6806,0.4443,0.6746,0.6959,0.8461,0.6273,0.7027,0.6821,0.6152,0.7577,0.6126,0.6019,0.6128,0.6214,0.7369,0.61,0.7601,0.5899,0.6521,0.7498,0.5819,0.7552,0.6029,0.5805,0.7178,0.4149,0.7322342991828918,0.6361681222915649,1.2986,0.6225,0.6528,0.6325,0.633,0.7617
180,0.6789,0.4488,0.6728,0.7055,0.8376,0.6257,0.7144,0.6628,0.6202,0.7508,0.6074,0.6093,0.6102,0.6224,0.7222,0.6061,0.7628,0.5849,0.6577,0.7393,0.5799,0.7639,0.5953,0.5818,0.7078,0.4112,0.7332548499107361,0.6346479058265686,1.3056,0.6196,0.6598,0.6252,0.6375,0.7515
181,0.6806,0.4466,0.6741,0.7029,0.8414,0.6264,0.7074,0.6701,0.6176,0.7544,0.6096,0.6072,0.6111,0.6218,0.7283,0.6096,0.7591,0.5884,0.6574,0.7452,0.5813,0.7604,0.5983,0.5819,0.7114,0.414,0.7319096922874451,0.6386598944664001,1.3126,0.6215,0.6561,0.6284,0.6363,0.7561
182,0.6802,0.4462,0.6738,0.7006,0.842,0.6274,0.709,0.668,0.6199,0.7533,0.6131,0.5998,0.6133,0.6224,0.7367,0.6075,0.7614,0.587,0.6528,0.7456,0.5817,0.7548,0.5999,0.5812,0.7155,0.4098,0.7328894734382629,0.637157678604126,1.3196,0.622,0.6542,0.6284,0.6354,0.7586
183,0.6796,0.4481,0.6734,0.7066,0.8375,0.626,0.7108,0.6654,0.6193,0.7518,0.6079,0.6068,0.6105,0.6226,0.7239,0.6052,0.7629,0.5843,0.6558,0.7399,0.58,0.7619,0.5945,0.5818,0.7083,0.4172,0.7263022661209106,0.6407646536827087,1.3266,0.6197,0.6581,0.6256,0.6372,0.7523
184,0.6797,0.4494,0.6738,0.7114,0.8352,0.6261,0.7152,0.6608,0.6219,0.7495,0.6043,0.6157,0.6083,0.6217,0.7155,0.6047,0.7608,0.5839,0.6595,0.7367,0.5783,0.7686,0.5925,0.5816,0.7035,0.4114,0.7328008413314819,0.6360164880752563,1.3336,0.6186,0.6619,0.6239,0.6392,0.7481
185,0.6796,0.4476,0.6735,0.7066,0.8377,0.6268,0.7093,0.6643,0.6207,0.7524,0.6076,0.6092,0.6101,0.6221,0.7228,0.6074,0.7608,0.5862,0.6583,0.7419,0.5801,0.7617,0.5948,0.582,0.7083,0.4155,0.7303528785705566,0.6384404301643372,1.3407,0.6203,0.6577,0.6258,0.6379,0.7526
186,0.6817,0.4421,0.6757,0.6951,0.8489,0.6276,0.7014,0.6788,0.6163,0.757,0.6117,0.6076,0.6115,0.6183,0.7379,0.6133,0.7543,0.5927,0.656,0.7519,0.5815,0.7563,0.6036,0.58,0.7173,0.4205,0.7313882112503052,0.6388055682182312,1.3478,0.6232,0.6523,0.6325,0.6331,0.7626
187,0.6785,0.4482,0.6726,0.7061,0.8369,0.6266,0.7161,0.6596,0.6238,0.7484,0.6078,0.6084,0.6103,0.6222,0.7229,0.6058,0.7636,0.5845,0.66,0.7376,0.5797,0.7641,0.5941,0.5819,0.7069,0.4086,0.7289088368415833,0.6396753787994385,1.3548,0.6197,0.6601,0.6242,0.6388,0.7505
188,0.6787,0.45,0.6733,0.7125,0.8328,0.6266,0.7177,0.6567,0.6256,0.747,0.6039,0.6098,0.6089,0.6231,0.7146,0.5994,0.7664,0.5792,0.6587,0.7289,0.5784,0.7678,0.5908,0.5825,0.7024,0.4147,0.72835773229599,0.6408105492591858,1.3618,0.6174,0.6623,0.6218,0.6405,0.7451
189,0.678,0.4488,0.6723,0.7071,0.8352,0.6273,0.7135,0.6567,0.6258,0.7481,0.6067,0.6081,0.6099,0.6225,0.7202,0.6033,0.766,0.5823,0.6612,0.7326,0.58,0.7634,0.5932,0.5829,0.7058,0.4098,0.7319796085357666,0.6368005275726318,1.3688,0.6191,0.66,0.6229,0.6399,0.7484
190,0.6807,0.445,0.6742,0.7016,0.8428,0.6289,0.7077,0.6676,0.6223,0.7526,0.6094,0.6108,0.6106,0.6206,0.7278,0.6091,0.7603,0.5876,0.6613,0.7409,0.5811,0.7622,0.5982,0.5821,0.7101,0.5351,0.7300319075584412,0.6380693912506104,1.3778,0.6218,0.6572,0.6276,0.6376,0.7548
191,0.6792,0.4486,0.6735,0.7107,0.8346,0.6274,0.7134,0.6584,0.6253,0.7484,0.6045,0.6111,0.6088,0.6224,0.7157,0.6019,0.7652,0.5813,0.6618,0.7297,0.5788,0.7666,0.5916,0.5826,0.7031,0.3906,0.7310636639595032,0.6363058090209961,1.3844,0.6184,0.661,0.6227,0.6406,0.7463
192,0.6814,0.4439,0.6749,0.7006,0.8446,0.6284,0.7096,0.6701,0.6212,0.7517,0.6099,0.61,0.6108,0.6202,0.7299,0.6112,0.7574,0.5895,0.662,0.7442,0.5813,0.7639,0.5997,0.5818,0.7107,0.4163,0.7304275035858154,0.6388793587684631,1.3914,0.6224,0.657,0.629,0.6372,0.7562
193,0.6814,0.4437,0.6749,0.6998,0.8453,0.6279,0.7131,0.6688,0.6216,0.7503,0.6113,0.6085,0.6116,0.6203,0.7336,0.6124,0.7557,0.5907,0.6622,0.7455,0.5811,0.7637,0.6005,0.5814,0.7112,0.4109,0.7330237030982971,0.6376763582229614,1.3984,0.6228,0.6569,0.6293,0.6371,0.7572
194,0.6788,0.447,0.6727,0.7033,0.8384,0.6286,0.7089,0.6637,0.624,0.7508,0.6074,0.6069,0.6102,0.6221,0.7224,0.6065,0.7656,0.5849,0.6629,0.7362,0.5814,0.7614,0.5959,0.5833,0.7091,0.4152,0.7328416109085083,0.6375267505645752,1.4055,0.6205,0.658,0.6255,0.6391,0.7514
195,0.6804,0.4455,0.6739,0.7042,0.8407,0.6277,0.7146,0.6623,0.6243,0.7482,0.6084,0.6107,0.6102,0.6211,0.7248,0.6088,0.7594,0.5872,0.6647,0.7381,0.5804,0.7662,0.5964,0.5823,0.7073,0.4143,0.7273483276367188,0.6399327516555786,1.4125,0.6211,0.6593,0.626,0.6393,0.7518
196,0.6801,0.4462,0.6738,0.7057,0.8387,0.6286,0.7106,0.6628,0.6247,0.7498,0.6072,0.6094,0.61,0.6221,0.7216,0.6062,0.7625,0.5848,0.6639,0.7347,0.5811,0.7645,0.5952,0.5836,0.707,0.4094,0.7281770706176758,0.6402419805526733,1.4195,0.6206,0.6586,0.6253,0.64,0.7504
197,0.6809,0.4429,0.6749,0.6961,0.8459,0.6292,0.709,0.6687,0.6228,0.7516,0.6131,0.5981,0.613,0.6202,0.7398,0.6096,0.7615,0.5882,0.6591,0.7428,0.5828,0.7551,0.6019,0.582,0.7164,0.4139,0.7278528809547424,0.6407427191734314,1.4265,0.6231,0.6533,0.6293,0.636,0.7593
198,0.6804,0.4453,0.6739,0.7029,0.8412,0.6275,0.7119,0.6603,0.6246,0.7482,0.6091,0.6082,0.6107,0.6214,0.7265,0.6099,0.7597,0.5881,0.6656,0.7392,0.5818,0.7629,0.5978,0.5834,0.7091,0.4157,0.7300636172294617,0.6396055221557617,1.4336,0.6217,0.6576,0.6262,0.6396,0.7528
199,0.679,0.4477,0.6731,0.7078,0.8357,0.626,0.7152,0.6564,0.6252,0.7457,0.606,0.6065,0.6097,0.6225,0.7193,0.6052,0.7634,0.5839,0.6629,0.7346,0.5804,0.7642,0.5938,0.5833,0.7062,0.4129,0.7309115529060364,0.6405811309814453,1.4406,0.6193,0.6594,0.6234,0.6403,0.7483
200,0.6783,0.4483,0.6726,0.7073,0.8348,0.6262,0.7114,0.6537,0.6264,0.7462,0.6061,0.6056,0.6099,0.6227,0.7192,0.6028,0.7676,0.5818,0.6625,0.7309,0.5815,0.7606,0.594,0.5846,0.7073,0.4141,0.730184018611908,0.6379536390304565,1.4476,0.619,0.6587,0.6224,0.6407,0.7477
201,0.6805,0.4453,0.6741,0.7038,0.8407,0.6264,0.7154,0.6578,0.6251,0.7459,0.6097,0.6066,0.611,0.6213,0.7285,0.6095,0.7593,0.5877,0.6653,0.7391,0.5817,0.7631,0.5974,0.5834,0.7086,0.4067,0.7297722101211548,0.6411975622177124,1.4548,0.6216,0.6579,0.6256,0.6398,0.7526
202,0.6805,0.4453,0.674,0.7044,0.8406,0.6249,0.7205,0.6538,0.6262,0.7424,0.6099,0.608,0.611,0.6209,0.7289,0.6073,0.7589,0.5861,0.6649,0.7356,0.5808,0.7662,0.5966,0.583,0.7067,0.4219,0.7308293581008911,0.638671875,1.4619,0.6207,0.6598,0.6243,0.6399,0.7508
203,0.6806,0.4454,0.6741,0.7039,0.8404,0.627,0.7108,0.6568,0.6258,0.7467,0.6095,0.6063,0.6109,0.6214,0.7279,0.6081,0.7614,0.5866,0.6647,0.7375,0.5817,0.7608,0.5969,0.5835,0.7087,0.4068,0.7316601872444153,0.638286828994751,1.4689,0.6214,0.6569,0.6251,0.6399,0.7522
204,0.6802,0.4471,0.6741,0.7101,0.8361,0.6269,0.7116,0.6546,0.6273,0.7454,0.6051,0.6106,0.6088,0.6217,0.7178,0.6043,0.7615,0.5834,0.6644,0.7322,0.5798,0.7653,0.5931,0.5834,0.7039,0.4123,0.7307763695716858,0.6393581628799438,1.4759,0.6193,0.6592,0.6228,0.6414,0.7471
205,0.6799,0.4466,0.6737,0.706,0.8374,0.6278,0.7093,0.6566,0.6271,0.7471,0.6085,0.6022,0.6109,0.6226,0.7251,0.6046,0.7654,0.5833,0.6628,0.7334,0.5824,0.7583,0.5959,0.5847,0.7088,0.4124,0.728257954120636,0.6408863663673401,1.4829,0.6206,0.6564,0.6241,0.6406,0.7504
206,0.6832,0.4415,0.6767,0.6994,0.8473,0.6293,0.7059,0.6675,0.6236,0.7505,0.612,0.6048,0.612,0.6196,0.7367,0.6131,0.7546,0.5912,0.6632,0.7452,0.5836,0.7575,0.6031,0.5833,0.7141,0.4222,0.7309233546257019,0.6408205032348633,1.49,0.6242,0.6529,0.6301,0.6378,0.7588
207,0.682,0.4436,0.6753,0.7031,0.8428,0.6279,0.7074,0.6623,0.6243,0.7485,0.6094,0.6057,0.6107,0.6205,0.7291,0.6086,0.7584,0.587,0.6622,0.7398,0.5813,0.7605,0.5979,0.5823,0.7101,0.4138,0.7300401926040649,0.6411815881729126,1.497,0.6218,0.6551,0.6266,0.6385,0.7541
208,0.6818,0.4434,0.6751,0.7024,0.8429,0.6286,0.7048,0.6632,0.6245,0.7495,0.6091,0.6066,0.6104,0.6202,0.7283,0.6098,0.7584,0.5881,0.6636,0.741,0.5818,0.7594,0.5981,0.5828,0.7109,0.4167,0.7270140051841736,0.6415107846260071,1.5041,0.6222,0.6545,0.627,0.6387,0.7545
209,0.6812,0.4437,0.6747,0.7023,0.8419,0.6287,0.7059,0.662,0.6254,0.7491,0.6098,0.6031,0.6111,0.621,0.7291,0.6069,0.7613,0.5855,0.6612,0.7387,0.5819,0.7577,0.5978,0.5828,0.7118,0.4139,0.7243810892105103,0.642139196395874,1.5111,0.6217,0.6543,0.6262,0.6385,0.7541
210,0.6804,0.4439,0.674,0.7017,0.8411,0.6286,0.707,0.6611,0.626,0.7484,0.6102,0.6012,0.6114,0.6213,0.7297,0.6066,0.7615,0.5852,0.6609,0.7377,0.5818,0.7562,0.5975,0.5825,0.7126,0.4202,0.7248572111129761,0.6432444453239441,1.5182,0.6215,0.654,0.6258,0.6385,0.7539
211,0.6798,0.4461,0.6736,0.7073,0.8373,0.6263,0.7127,0.6523,0.6287,0.7432,0.6071,0.608,0.6098,0.6217,0.7217,0.6034,0.7621,0.5827,0.6628,0.7319,0.5811,0.7623,0.5948,0.584,0.7068,0.4125,0.7243362665176392,0.6410419344902039,1.5252,0.6195,0.6582,0.6226,0.6409,0.7482
212,0.6819,0.4429,0.6752,0.702,0.8433,0.627,0.7081,0.6593,0.6248,0.7466,0.6098,0.6057,0.6108,0.6202,0.7298,0.6091,0.7568,0.5876,0.6633,0.7403,0.5825,0.759,0.5993,0.5833,0.7114,0.4186,0.7321287393569946,0.6402539014816284,1.5323,0.6221,0.6545,0.6264,0.6387,0.7543
213,0.6793,0.4481,0.6737,0.7123,0.8332,0.6258,0.7144,0.6496,0.6301,0.7414,0.6045,0.6084,0.609,0.6227,0.7157,0.6004,0.7652,0.5804,0.6654,0.7255,0.5801,0.7643,0.5919,0.5849,0.7027,0.4096,0.73050457239151,0.6405392289161682,1.5393,0.618,0.6601,0.6209,0.6431,0.7437
214,0.6816,0.4454,0.6751,0.7091,0.8387,0.6249,0.7137,0.6524,0.6267,0.7423,0.6066,0.6107,0.6094,0.6215,0.7205,0.6047,0.7579,0.584,0.6637,0.7331,0.5798,0.7653,0.5945,0.5829,0.7045,0.4148,0.728521466255188,0.6403716206550598,1.5464,0.6195,0.6586,0.6231,0.6408,0.7478
215,0.6835,0.4398,0.6773,0.6977,0.8487,0.629,0.7045,0.6668,0.6237,0.7494,0.6118,0.6037,0.6117,0.6187,0.7376,0.6128,0.7531,0.591,0.6629,0.7455,0.5834,0.7561,0.6034,0.5829,0.7146,0.4071,0.7272884249687195,0.6396693587303162,1.5533,0.6241,0.6514,0.63,0.6372,0.7592
216,0.6831,0.4411,0.6766,0.699,0.847,0.6289,0.7046,0.6624,0.6257,0.7485,0.6117,0.6024,0.6116,0.6188,0.737,0.6111,0.7565,0.5894,0.6623,0.7435,0.584,0.7535,0.6028,0.5835,0.7156,0.415,0.727547824382782,0.6413671374320984,1.5604,0.6238,0.6516,0.6286,0.6379,0.7583
217,0.6803,0.4463,0.6741,0.7082,0.8361,0.6291,0.705,0.6542,0.6306,0.7465,0.6082,0.6015,0.6109,0.6226,0.7244,0.6024,0.7658,0.5815,0.6633,0.7298,0.5836,0.7548,0.5959,0.5864,0.7092,0.4168,0.7280112504959106,0.6396713852882385,1.5675,0.6207,0.6547,0.6233,0.6422,0.7492
218,0.6836,0.44,0.6773,0.6985,0.8474,0.6287,0.7057,0.6656,0.6242,0.7482,0.6127,0.5982,0.6125,0.6195,0.7397,0.612,0.7547,0.5902,0.662,0.7445,0.5837,0.7542,0.6033,0.5829,0.7161,0.4125,0.7232068181037903,0.6439586877822876,1.5745,0.6241,0.6506,0.6298,0.6374,0.7592
219,0.6831,0.4415,0.6764,0.7017,0.8453,0.6264,0.7107,0.6567,0.6263,0.7437,0.6112,0.6034,0.6114,0.6195,0.7348,0.6081,0.7563,0.5867,0.6637,0.7383,0.5821,0.759,0.5996,0.5829,0.7105,0.4146,0.7293095588684082,0.6416285037994385,1.5815,0.6222,0.6542,0.6262,0.6388,0.7545
220,0.6819,0.446,0.6756,0.7134,0.8361,0.6259,0.712,0.651,0.6292,0.7419,0.6051,0.6113,0.6088,0.6221,0.717,0.6012,0.761,0.5814,0.6665,0.725,0.5808,0.766,0.593,0.5859,0.7017,0.4134,0.7293362021446228,0.6389132738113403,1.5885,0.619,0.6593,0.622,0.6434,0.7443
221,0.6789,0.4491,0.6741,0.7177,0.8304,0.6214,0.7219,0.6423,0.6313,0.7344,0.6014,0.6161,0.6072,0.6223,0.709,0.5943,0.7644,0.5771,0.6659,0.7142,0.5774,0.7723,0.5885,0.5851,0.6946,0.4172,0.7300831079483032,0.6392983198165894,1.5956,0.6147,0.6648,0.6178,0.6445,0.7365
222,0.68,0.4474,0.6742,0.7129,0.8338,0.6246,0.7138,0.646,0.6314,0.7392,0.6057,0.6086,0.6092,0.6221,0.7179,0.5996,0.7648,0.5801,0.6663,0.7228,0.5811,0.7619,0.5925,0.5862,0.7026,0.4153,0.7309166789054871,0.6386439204216003,1.6026,0.6182,0.6593,0.6204,0.6438,0.7433
223,0.6781,0.4495,0.6734,0.716,0.8293,0.6241,0.714,0.6435,0.6328,0.7386,0.603,0.6091,0.6085,0.6236,0.7115,0.5933,0.7705,0.5754,0.6648,0.7139,0.5812,0.7637,0.5908,0.5884,0.6995,0.4166,0.7286980152130127,0.6398529410362244,1.6097,0.6159,0.6614,0.6183,0.6451,0.7386
224,0.6824,0.4443,0.6757,0.7088,0.8391,0.6269,0.7053,0.6531,0.6283,0.7448,0.6062,0.6092,0.6089,0.6206,0.7205,0.603,0.7616,0.5824,0.665,0.7292,0.5824,0.7608,0.5954,0.5862,0.7055,0.4149,0.7266468405723572,0.6412015557289124,1.6167,0.6202,0.6562,0.6231,0.6418,0.7478
225,0.6826,0.4435,0.6758,0.7072,0.8409,0.6249,0.7117,0.6505,0.6281,0.7412,0.6081,0.6096,0.6098,0.6204,0.7243,0.6038,0.7592,0.5833,0.6656,0.7296,0.5809,0.7627,0.595,0.5842,0.7049,0.4152,0.7294903993606567,0.6403157711029053,1.6238,0.6201,0.6573,0.6229,0.6411,0.7482
226,0.6834,0.4412,0.6766,0.7021,0.8451,0.6277,0.7031,0.657,0.6271,0.7465,0.6101,0.6061,0.6106,0.6192,0.7311,0.6076,0.7574,0.5863,0.6639,0.7375,0.5829,0.7561,0.5989,0.5842,0.7107,0.4192,0.7255297303199768,0.6441262364387512,1.6309,0.6223,0.6528,0.6259,0.6393,0.7542
227,0.681,0.446,0.6748,0.711,0.8363,0.6249,0.7124,0.6471,0.6313,0.7397,0.6066,0.6094,0.6092,0.621,0.7202,0.6008,0.7638,0.5809,0.6656,0.725,0.5817,0.7617,0.5937,0.5863,0.7037,0.5681,0.72903972864151,0.6403456926345825,1.6405,0.619,0.6587,0.6211,0.643,0.745
228,0.6824,0.4422,0.6758,0.702,0.8432,0.6281,0.703,0.6552,0.6288,0.746,0.6107,0.6019,0.6113,0.62,0.7321,0.6055,0.7607,0.5843,0.6629,0.7353,0.5842,0.7527,0.5991,0.5855,0.7124,0.7439,0.7270435690879822,0.6424045562744141,1.653,0.6222,0.6521,0.6251,0.6398,0.7538
229,0.6841,0.4393,0.6779,0.6977,0.8487,0.6285,0.7004,0.6598,0.6263,0.7478,0.6127,0.6012,0.6123,0.6191,0.7391,0.6104,0.7564,0.5886,0.6639,0.7414,0.5851,0.7506,0.6033,0.5849,0.7158,0.3611,0.7278131246566772,0.6419237852096558,1.6592,0.6242,0.6496,0.6284,0.6384,0.7586
230,0.6822,0.4426,0.6755,0.7037,0.8416,0.6282,0.7024,0.6527,0.6306,0.7457,0.6097,0.6028,0.6107,0.6201,0.7288,0.6037,0.7632,0.5828,0.6639,0.7315,0.5841,0.7525,0.5978,0.586,0.7112,0.4057,0.7243084907531738,0.6426339745521545,1.666,0.6216,0.6527,0.6239,0.6409,0.7518
231,0.6849,0.4382,0.6789,0.6978,0.8496,0.6298,0.6968,0.6627,0.6264,0.7494,0.6125,0.6001,0.6122,0.619,0.7391,0.6118,0.7544,0.59,0.6635,0.7437,0.5851,0.7493,0.6042,0.5844,0.717,0.4171,0.7282565236091614,0.6421312689781189,1.6731,0.6248,0.6478,0.6296,0.6382,0.7598
232,0.6831,0.4411,0.6764,0.7017,0.8451,0.6271,0.705,0.6537,0.6288,0.7444,0.6101,0.6061,0.6106,0.6193,0.7305,0.6078,0.7567,0.5865,0.6646,0.7367,0.5837,0.7553,0.5998,0.5849,0.7115,0.4159,0.7290942668914795,0.6429910659790039,1.6802,0.6224,0.6528,0.6254,0.6399,0.7536
233,0.6799,0.447,0.6743,0.7135,0.8333,0.6267,0.7073,0.6471,0.6336,0.7416,0.6037,0.6129,0.6082,0.6222,0.7121,0.5976,0.7653,0.579,0.6677,0.7186,0.5819,0.7613,0.5925,0.588,0.7019,0.4257,0.7286240458488464,0.6391566395759583,1.6874,0.618,0.6588,0.6202,0.645,0.7415
234,0.6836,0.4398,0.6773,0.6986,0.847,0.6301,0.6974,0.6602,0.6284,0.7488,0.6116,0.6021,0.6116,0.6192,0.7346,0.6082,0.7586,0.5866,0.6637,0.7387,0.5854,0.7497,0.6021,0.5856,0.7155,0.4207,0.7242307662963867,0.6432125568389893,1.6945,0.6238,0.6495,0.6276,0.6391,0.7569
235,0.6826,0.4436,0.6759,0.7077,0.8396,0.6294,0.7012,0.6542,0.6315,0.7462,0.6077,0.6066,0.6098,0.6207,0.7228,0.6043,0.7622,0.5833,0.6664,0.7306,0.5851,0.755,0.5976,0.588,0.7095,0.4107,0.7284365892410278,0.6421611905097961,1.7015,0.6218,0.6537,0.6242,0.6429,0.7497
236,0.6833,0.4405,0.6767,0.7,0.8462,0.627,0.7055,0.6531,0.6294,0.7437,0.6115,0.6031,0.6115,0.619,0.7344,0.6072,0.7581,0.5858,0.6654,0.7356,0.5842,0.7529,0.6002,0.5851,0.7129,0.4148,0.7283732891082764,0.6413192749023438,1.7086,0.6226,0.652,0.6255,0.6398,0.7546
237,0.6838,0.4425,0.6768,0.7067,0.8426,0.6266,0.7079,0.6517,0.6303,0.7424,0.6072,0.6112,0.6089,0.6188,0.7233,0.6043,0.7595,0.5837,0.6672,0.7291,0.5838,0.7602,0.5975,0.5869,0.7073,0.4137,0.7276579141616821,0.6418638825416565,1.7156,0.6211,0.6563,0.6237,0.642,0.7489
238,0.6783,0.4486,0.6736,0.7165,0.8299,0.6223,0.7194,0.641,0.6345,0.734,0.6021,0.6148,0.6076,0.6224,0.7086,0.5924,0.7685,0.5762,0.6698,0.7078,0.5796,0.7681,0.5896,0.5879,0.6963,0.4123,0.727672815322876,0.64035964012146,1.7227,0.6149,0.6639,0.6176,0.6462,0.7353
239,0.683,0.4427,0.6762,0.7059,0.8416,0.629,0.7017,0.6537,0.6316,0.7457,0.6074,0.6078,0.6093,0.6195,0.7233,0.6052,0.7616,0.5842,0.6675,0.7311,0.5849,0.7547,0.5983,0.5875,0.7098,0.4172,0.7292184829711914,0.641403079032898,1.7297,0.6219,0.6537,0.6243,0.6424,0.7503
240,0.6801,0.4468,0.6744,0.7129,0.833,0.6281,0.7029,0.6491,0.6335,0.7438,0.6041,0.6073,0.6091,0.6233,0.7126,0.596,0.7693,0.5769,0.665,0.7176,0.5848,0.7563,0.5946,0.5902,0.7055,0.4156,0.7230780720710754,0.6440324783325195,1.7368,0.6186,0.6565,0.6208,0.645,0.7425
241,0.6836,0.4428,0.6767,0.7086,0.8407,0.6281,0.7042,0.6531,0.6311,0.7441,0.6071,0.6086,0.6093,0.6203,0.7214,0.6035,0.7612,0.5829,0.667,0.728,0.5845,0.7576,0.5974,0.588,0.7076,0.4109,0.7272645235061646,0.6434339880943298,1.7438,0.6214,0.6549,0.6239,0.643,0.7484
242,0.6836,0.4427,0.6767,0.7085,0.8409,0.6282,0.7034,0.6526,0.6315,0.7442,0.6071,0.6095,0.6093,0.6202,0.7214,0.6041,0.7606,0.5835,0.6676,0.7283,0.5844,0.7567,0.5974,0.5878,0.7077,0.4125,0.7258998155593872,0.6436973214149475,1.7508,0.6215,0.6546,0.6239,0.6431,0.7485
243,0.6857,0.4366,0.6801,0.6964,0.8519,0.6282,0.6966,0.6609,0.6253,0.7483,0.6128,0.6016,0.6122,0.6179,0.7407,0.6112,0.7528,0.5893,0.6646,0.7415,0.5859,0.7493,0.6053,0.5853,0.7164,0.4164,0.7274771332740784,0.6426000595092773,1.7578,0.6248,0.6474,0.6296,0.6379,0.7598
244,0.6841,0.4425,0.677,0.7094,0.8409,0.6268,0.707,0.6516,0.6307,0.7419,0.6074,0.6094,0.6094,0.62,0.7226,0.6021,0.76,0.5821,0.6676,0.7251,0.5842,0.7601,0.597,0.5883,0.7058,0.4134,0.7280409336090088,0.6409502029418945,1.7649,0.6209,0.6558,0.6234,0.6432,0.7473
245,0.6839,0.441,0.6771,0.7037,0.8439,0.6306,0.6979,0.6568,0.6315,0.7472,0.6088,0.606,0.61,0.6195,0.7263,0.6047,0.7622,0.5837,0.6681,0.7291,0.5862,0.7529,0.5995,0.5889,0.7105,0.418,0.72657310962677,0.6435237526893616,1.772,0.6228,0.652,0.6254,0.6423,0.7514
246,0.6828,0.4427,0.676,0.7074,0.84,0.6281,0.704,0.6521,0.6321,0.7433,0.6082,0.6052,0.6103,0.6216,0.7223,0.5998,0.7647,0.5797,0.6656,0.7231,0.5849,0.756,0.5969,0.5887,0.7075,0.4127,0.7254288792610168,0.6437591910362244,1.779,0.6208,0.6545,0.623,0.6431,0.7472
247,0.6834,0.4405,0.6767,0.7027,0.8434,0.6283,0.7025,0.6552,0.6299,0.7446,0.611,0.5989,0.6118,0.6208,0.7309,0.6058,0.7604,0.5844,0.666,0.7321,0.5855,0.7518,0.5997,0.5871,0.7119,0.4122,0.7233980298042297,0.6438769102096558,1.786,0.6228,0.6508,0.6256,0.6413,0.7526
248,0.6832,0.4427,0.6764,0.7086,0.8396,0.6296,0.6975,0.6525,0.6324,0.7462,0.6073,0.6068,0.6098,0.6217,0.7205,0.6028,0.763,0.5825,0.6704,0.7249,0.5855,0.7528,0.5971,0.5897,0.7076,0.4139,0.7265175580978394,0.6432963609695435,1.793,0.6217,0.6526,0.6237,0.6446,0.7478
249,0.6829,0.4427,0.6762,0.7087,0.8393,0.6271,0.7051,0.6506,0.6317,0.7421,0.6081,0.6037,0.6104,0.622,0.7219,0.6011,0.7624,0.581,0.6663,0.7247,0.5852,0.7555,0.5973,0.5889,0.7077,0.4137,0.7242849469184875,0.6440065503120422,1.8001,0.6209,0.6539,0.6231,0.6435,0.7471
250,0.6831,0.4421,0.6763,0.7068,0.8407,0.6278,0.7034,0.6506,0.6326,0.743,0.609,0.6034,0.6104,0.6204,0.7259,0.6022,0.7632,0.5819,0.6682,0.7249,0.586,0.753,0.5983,0.5895,0.7086,0.4144,0.7278236150741577,0.6411237716674805,1.8071,0.6216,0.653,0.6235,0.6435,0.7486
251,0.6826,0.4441,0.6762,0.7133,0.8363,0.6272,0.7045,0.6501,0.6323,0.7421,0.6057,0.6085,0.6093,0.6228,0.7158,0.5971,0.7649,0.5783,0.6664,0.7185,0.5837,0.7586,0.5945,0.5894,0.7034,0.4144,0.7273216843605042,0.6424424648284912,1.8141,0.6193,0.6561,0.6217,0.6448,0.7432
252,0.6838,0.4425,0.6768,0.7107,0.8395,0.627,0.705,0.6503,0.6319,0.7419,0.6077,0.6081,0.6097,0.6212,0.7216,0.6019,0.7601,0.582,0.6687,0.7245,0.5846,0.7571,0.5965,0.5892,0.7055,0.4123,0.7281811833381653,0.6427097916603088,1.8211,0.621,0.6546,0.6231,0.6443,0.7466
253,0.684,0.4432,0.6771,0.7138,0.8382,0.6249,0.71,0.6478,0.6315,0.7387,0.6069,0.6105,0.6094,0.6216,0.719,0.5987,0.7603,0.5802,0.6686,0.7188,0.5825,0.7618,0.5942,0.5884,0.7016,0.436,0.7275789380073547,0.6430469751358032,1.8285,0.6194,0.6572,0.6217,0.6448,0.7433
254,0.6852,0.4401,0.678,0.7075,0.8436,0.6255,0.7075,0.6505,0.63,0.7402,0.6096,0.6071,0.6103,0.6194,0.7284,0.6053,0.7558,0.5848,0.6689,0.7294,0.5852,0.7568,0.599,0.5885,0.7075,0.4955,0.7269911766052246,0.6427237391471863,1.8369,0.6222,0.6535,0.6245,0.6429,0.7498
255,0.6856,0.4382,0.6788,0.7028,0.8471,0.6259,0.7076,0.654,0.6285,0.7404,0.6112,0.6025,0.6112,0.6187,0.7344,0.607,0.756,0.5858,0.668,0.7324,0.5859,0.7555,0.6016,0.5877,0.7107,0.7006,0.7228777408599854,0.645151674747467,1.8487,0.6231,0.652,0.6263,0.6411,0.753
256,0.6834,0.4429,0.6766,0.7127,0.838,0.6272,0.7053,0.6506,0.632,0.7419,0.6053,0.6125,0.6087,0.6218,0.7147,0.5977,0.7621,0.5797,0.6698,0.7162,0.5829,0.7618,0.594,0.5893,0.7015,0.5392,0.7235226035118103,0.6439846158027649,1.8578,0.6193,0.6569,0.6219,0.6451,0.7425
257,0.6834,0.4419,0.6765,0.7098,0.8398,0.6259,0.7062,0.6487,0.6316,0.7409,0.6078,0.6091,0.6098,0.6212,0.7209,0.5987,0.762,0.5801,0.6694,0.7182,0.584,0.7587,0.5957,0.5893,0.7042,0.4857,0.726367175579071,0.6430270075798035,1.866,0.62,0.6556,0.6222,0.6443,0.7448
258,0.6835,0.4405,0.6768,0.7046,0.8423,0.6278,0.7026,0.6532,0.631,0.743,0.6102,0.5992,0.6113,0.621,0.7283,0.6027,0.7621,0.582,0.6666,0.7266,0.587,0.7513,0.6002,0.5896,0.7111,0.4643,0.7242656946182251,0.6433362364768982,1.8739,0.6222,0.6511,0.6247,0.6426,0.7503
259,0.6848,0.4395,0.6779,0.7045,0.8444,0.6291,0.6991,0.6539,0.6316,0.7451,0.6104,0.603,0.6111,0.6203,0.7288,0.6057,0.7592,0.5848,0.6704,0.729,0.5875,0.7505,0.6009,0.5901,0.711,0.4345,0.7290648221969604,0.64173424243927,1.8813,0.6235,0.6503,0.6257,0.6434,0.7517
260,0.6847,0.4409,0.6776,0.7096,0.8413,0.6292,0.6994,0.654,0.6318,0.745,0.6072,0.6103,0.6094,0.6209,0.7196,0.6044,0.7581,0.5841,0.6724,0.7252,0.5859,0.7565,0.5979,0.5904,0.7067,0.4339,0.7269052863121033,0.6433382034301758,1.8886,0.6223,0.653,0.6246,0.645,0.7476
261,0.6837,0.4403,0.677,0.7047,0.8422,0.632,0.6922,0.658,0.6323,0.7488,0.6095,0.6013,0.611,0.6215,0.7254,0.6046,0.7618,0.5834,0.6673,0.7303,0.5885,0.7472,0.6009,0.591,0.7127,0.4323,0.7251319289207458,0.6443058252334595,1.896,0.6237,0.6486,0.6261,0.6434,0.7519
262,0.6842,0.4401,0.6772,0.7054,0.8433,0.6267,0.7043,0.6516,0.6308,0.7416,0.6098,0.6041,0.6107,0.6201,0.7274,0.6033,0.7604,0.583,0.6691,0.7259,0.586,0.7536,0.5991,0.5893,0.709,0.4218,0.7264328002929688,0.6431108117103577,1.9032,0.622,0.6525,0.6243,0.6429,0.7494
263,0.6849,0.4391,0.6781,0.7038,0.8452,0.6288,0.7012,0.6555,0.631,0.7438,0.6105,0.6032,0.611,0.6197,0.7301,0.6036,0.7598,0.5829,0.6672,0.7275,0.5876,0.7528,0.6014,0.5902,0.7113,0.4254,0.726783037185669,0.6427516937255859,1.9104,0.6231,0.6512,0.6258,0.6424,0.7516
264,0.6841,0.4421,0.6772,0.7127,0.8386,0.627,0.703,0.65,0.6322,0.7418,0.6078,0.6087,0.6101,0.6224,0.7195,0.5983,0.763,0.5795,0.6695,0.7178,0.5851,0.7573,0.5959,0.5909,0.7042,0.4158,0.7245555520057678,0.6441821455955505,1.9175,0.6205,0.6548,0.6225,0.6455,0.7444
265,0.6849,0.4389,0.6783,0.7021,0.8451,0.6321,0.6919,0.6586,0.6322,0.7486,0.6112,0.598,0.6116,0.6199,0.7321,0.6035,0.7633,0.5824,0.6666,0.7283,0.5897,0.7457,0.6028,0.5917,0.7142,0.4167,0.725288987159729,0.6445152759552002,1.9246,0.6243,0.6476,0.6267,0.6425,0.7537
266,0.6847,0.44,0.6776,0.7079,0.8422,0.6274,0.7028,0.653,0.6309,0.7422,0.6094,0.6052,0.6106,0.6208,0.7256,0.6011,0.7599,0.5812,0.668,0.7233,0.5862,0.7555,0.5987,0.5901,0.708,0.4169,0.7234904766082764,0.6458958387374878,1.9316,0.6218,0.6527,0.6242,0.6435,0.7483
267,0.6853,0.4394,0.6782,0.707,0.8436,0.6262,0.7041,0.6501,0.6312,0.7407,0.6108,0.6032,0.6112,0.62,0.73,0.6024,0.7577,0.5824,0.6693,0.7244,0.5873,0.7533,0.6002,0.5909,0.7087,0.4188,0.7276915907859802,0.6440584063529968,1.9387,0.6224,0.6515,0.6244,0.6437,0.7495
268,0.6841,0.4407,0.6771,0.7069,0.8418,0.6288,0.7,0.6527,0.6326,0.7437,0.6095,0.6046,0.6106,0.6206,0.7258,0.5986,0.7635,0.5794,0.6683,0.7193,0.5873,0.7536,0.5985,0.592,0.7075,0.4156,0.7264491319656372,0.6436694264411926,1.9458,0.6217,0.6525,0.6237,0.6441,0.7476
269,0.6856,0.437,0.6799,0.6978,0.8486,0.6316,0.6904,0.66,0.6305,0.7488,0.6129,0.5927,0.6125,0.6188,0.74,0.6047,0.7608,0.5834,0.6643,0.7319,0.5906,0.7417,0.6062,0.5908,0.7181,0.4129,0.7266502976417542,0.64426189661026,1.9529,0.6251,0.6445,0.6284,0.6404,0.7575
270,0.6848,0.4408,0.6777,0.7106,0.8406,0.6276,0.7034,0.6522,0.6319,0.7415,0.6087,0.6067,0.6104,0.6218,0.7223,0.5988,0.7607,0.5801,0.6705,0.7178,0.586,0.7578,0.5975,0.5916,0.7049,0.4134,0.7242311835289001,0.6451437473297119,1.9599,0.6212,0.6539,0.6236,0.6453,0.7454
271,0.684,0.4407,0.677,0.7096,0.8405,0.6274,0.7058,0.6501,0.6338,0.7402,0.609,0.6064,0.6105,0.6212,0.7234,0.5981,0.7616,0.5796,0.6694,0.7176,0.586,0.7569,0.5976,0.5911,0.7057,0.4164,0.7246990203857422,0.6439985632896423,1.967,0.6209,0.6543,0.623,0.645,0.7455
272,0.6825,0.4423,0.6759,0.7099,0.8378,0.6292,0.7015,0.65,0.6359,0.7427,0.6087,0.6039,0.6107,0.6221,0.7216,0.5955,0.7675,0.5773,0.6683,0.7142,0.5871,0.7523,0.5974,0.5924,0.707,0.418,0.7248693108558655,0.64369136095047,1.9741,0.6206,0.6535,0.6223,0.6457,0.7447
273,0.6841,0.4401,0.6772,0.7068,0.8417,0.629,0.6999,0.6529,0.6328,0.7437,0.6097,0.6034,0.6109,0.6211,0.7255,0.5995,0.7631,0.58,0.6685,0.7206,0.587,0.7521,0.5989,0.5908,0.7088,0.4237,0.7255159616470337,0.6433901190757751,1.9813,0.6219,0.6517,0.624,0.644,0.7481
274,0.6867,0.436,0.68,0.7021,0.8486,0.63,0.6971,0.6561,0.6319,0.7451,0.6115,0.6005,0.6112,0.6177,0.7359,0.6071,0.755,0.5859,0.6693,0.7315,0.5896,0.7479,0.6051,0.591,0.7142,0.4267,0.7201626896858215,0.6485552191734314,1.9885,0.625,0.6473,0.6277,0.6424,0.7551
275,0.6837,0.44,0.6768,0.7071,0.8414,0.6294,0.7014,0.6512,0.6355,0.7425,0.61,0.6026,0.6111,0.6211,0.726,0.5999,0.7626,0.5805,0.6696,0.7206,0.5878,0.7512,0.5999,0.5915,0.7096,0.4133,0.7230449318885803,0.6452993154525757,1.9955,0.6222,0.6516,0.6239,0.645,0.748
276,0.6787,0.4465,0.6743,0.7191,0.8283,0.6271,0.7074,0.6453,0.6377,0.7383,0.601,0.6134,0.6079,0.6245,0.703,0.5869,0.7723,0.5729,0.6708,0.6991,0.5812,0.7626,0.5896,0.5913,0.6954,0.4193,0.7235748767852783,0.6449581980705261,2.0026,0.615,0.6604,0.618,0.6487,0.7328
277,0.6839,0.4411,0.677,0.7117,0.839,0.6284,0.7037,0.6497,0.6354,0.7412,0.6083,0.607,0.6102,0.6216,0.7209,0.597,0.7633,0.5789,0.6712,0.7149,0.5869,0.7554,0.5978,0.5926,0.7056,0.4158,0.7253690958023071,0.6441900730133057,2.0097,0.6209,0.6541,0.6227,0.6465,0.7443
278,0.685,0.4396,0.6778,0.7099,0.8418,0.6269,0.7056,0.6498,0.6331,0.74,0.609,0.6088,0.6103,0.6209,0.7229,0.5999,0.7591,0.5814,0.6734,0.7172,0.586,0.7572,0.5981,0.5911,0.7055,0.4148,0.7222765684127808,0.6454309821128845,2.0167,0.6214,0.6541,0.6235,0.6457,0.7455
279,0.6863,0.4376,0.679,0.7069,0.8453,0.6272,0.7042,0.6531,0.6309,0.7413,0.6099,0.6081,0.6104,0.6193,0.7276,0.6025,0.7568,0.583,0.6718,0.7224,0.5868,0.7572,0.6002,0.5908,0.7077,0.4175,0.7224340438842773,0.6466339826583862,2.0238,0.6225,0.6528,0.6251,0.6439,0.7489
280,0.6842,0.4412,0.6773,0.7114,0.8395,0.6285,0.7027,0.6508,0.6343,0.7419,0.6083,0.6081,0.6101,0.6213,0.721,0.5972,0.7642,0.5791,0.6726,0.7139,0.5868,0.7549,0.5973,0.5928,0.7053,0.4215,0.7259554862976074,0.6431946158409119,2.031,0.621,0.6542,0.6229,0.6465,0.7443
281,0.6845,0.4408,0.6775,0.7109,0.8396,0.6283,0.7017,0.6514,0.6335,0.742,0.6089,0.604,0.6106,0.6216,0.7233,0.5988,0.7632,0.5797,0.6712,0.7174,0.5878,0.7528,0.5988,0.5928,0.7074,0.4092,0.7238096594810486,0.6450140476226807,2.0379,0.6217,0.6525,0.6236,0.646,0.7459
282,0.685,0.439,0.678,0.7065,0.8429,0.6301,0.6961,0.6544,0.6329,0.7454,0.6103,0.6025,0.6111,0.6209,0.727,0.6019,0.7622,0.5818,0.6714,0.7221,0.5893,0.7486,0.6011,0.593,0.7109,0.4112,0.7225308418273926,0.6457182765007019,2.0449,0.6233,0.6497,0.6253,0.6449,0.7497
283,0.683,0.4426,0.6767,0.7167,0.8358,0.6246,0.713,0.6454,0.6348,0.7354,0.6053,0.6159,0.6085,0.6216,0.7126,0.5902,0.7659,0.5758,0.6734,0.7019,0.5821,0.7665,0.5921,0.5917,0.696,0.4186,0.7205700278282166,0.6480903625488281,2.052,0.617,0.6608,0.6197,0.6476,0.7363
284,0.6855,0.4374,0.6786,0.7036,0.846,0.6298,0.6989,0.6525,0.6347,0.7433,0.6115,0.6017,0.6114,0.6189,0.7324,0.6021,0.7606,0.5822,0.6718,0.7218,0.5894,0.7482,0.6023,0.5926,0.7112,0.4187,0.7268635034561157,0.6431626677513123,2.0591,0.6237,0.6494,0.6254,0.6443,0.7509
285,0.6843,0.441,0.6774,0.7129,0.8388,0.6268,0.7066,0.6472,0.6356,0.7385,0.6093,0.6067,0.6107,0.6217,0.7225,0.5967,0.7635,0.5791,0.6742,0.712,0.5864,0.756,0.597,0.5928,0.7042,0.4154,0.7259668111801147,0.6434060335159302,2.0662,0.6207,0.6548,0.6223,0.6474,0.7432
286,0.6863,0.4369,0.6795,0.7035,0.8464,0.6309,0.6937,0.6563,0.6327,0.7464,0.6115,0.5992,0.6115,0.6192,0.7328,0.6047,0.7582,0.5838,0.6701,0.727,0.5909,0.7453,0.6046,0.593,0.7142,0.4149,0.7252844572067261,0.6456464529037476,2.0732,0.6249,0.6467,0.6271,0.6437,0.7534
287,0.6855,0.4387,0.6784,0.7068,0.843,0.63,0.6962,0.6562,0.6319,0.7452,0.6103,0.6014,0.6113,0.621,0.7272,0.6016,0.7612,0.5813,0.6708,0.7219,0.5892,0.7493,0.6013,0.5929,0.7108,0.4172,0.7233698964118958,0.6470708847045898,2.0803,0.6233,0.6494,0.6257,0.6447,0.7496
288,0.6884,0.4341,0.682,0.7013,0.8512,0.6298,0.696,0.6565,0.6314,0.745,0.612,0.6,0.6114,0.6167,0.739,0.6075,0.752,0.5863,0.6697,0.7317,0.5899,0.7458,0.6068,0.5907,0.7154,0.4148,0.725464403629303,0.6436694264411926,2.0874,0.6255,0.6456,0.6286,0.642,0.7565
289,0.6863,0.4381,0.6791,0.7074,0.8441,0.6296,0.6985,0.6552,0.6324,0.744,0.6106,0.6023,0.6111,0.6198,0.7295,0.6024,0.7594,0.5821,0.6696,0.7238,0.5897,0.7497,0.6025,0.5929,0.7116,0.4179,0.7253723740577698,0.6456723809242249,2.0945,0.6237,0.6496,0.626,0.6444,0.7506
290,0.6857,0.438,0.6786,0.7062,0.8444,0.628,0.7033,0.6527,0.6328,0.741,0.6112,0.6015,0.6115,0.62,0.7303,0.6027,0.7603,0.5826,0.6735,0.7218,0.5888,0.7519,0.6017,0.5924,0.7102,0.4133,0.7226102948188782,0.6459636688232422,2.1015,0.6233,0.651,0.6254,0.645,0.7495
291,0.6864,0.4376,0.6791,0.7084,0.8444,0.6278,0.7043,0.652,0.6331,0.7405,0.6103,0.6058,0.6108,0.6197,0.728,0.603,0.758,0.5833,0.6749,0.7209,0.588,0.7547,0.6008,0.5923,0.7081,0.4197,0.7202969789505005,0.6476534605026245,2.1086,0.6231,0.6521,0.6252,0.6457,0.7484
292,0.6883,0.4344,0.6815,0.7031,0.8504,0.6296,0.6982,0.6532,0.634,0.743,0.6116,0.6018,0.6111,0.6165,0.7376,0.6068,0.7525,0.586,0.6719,0.7288,0.5892,0.746,0.605,0.5908,0.7134,0.4119,0.7253048419952393,0.6445013284683228,2.1156,0.6251,0.6466,0.6274,0.6433,0.7546
293,0.6869,0.4373,0.6795,0.709,0.8446,0.6295,0.6995,0.6529,0.6345,0.7424,0.6101,0.6068,0.6106,0.6195,0.7272,0.603,0.7572,0.5834,0.675,0.7215,0.588,0.7518,0.6006,0.5922,0.7084,0.4124,0.7232728004455566,0.6471068263053894,2.1226,0.6235,0.6505,0.6254,0.646,0.7488
294,0.6876,0.4355,0.6803,0.7068,0.8476,0.6273,0.7063,0.6522,0.633,0.7394,0.6106,0.6075,0.6105,0.6179,0.7305,0.605,0.7542,0.5851,0.6763,0.7228,0.5878,0.7557,0.6021,0.5915,0.7084,0.4167,0.7239821553230286,0.646823525428772,2.1297,0.6237,0.6518,0.626,0.6451,0.7497
295,0.6833,0.4422,0.6771,0.7182,0.8346,0.6265,0.7078,0.6451,0.6376,0.7373,0.6071,0.6103,0.6099,0.6229,0.7149,0.5917,0.7674,0.5765,0.6768,0.702,0.5844,0.7584,0.5937,0.593,0.6998,0.4204,0.7254983186721802,0.6450719237327576,2.1368,0.6186,0.6572,0.6205,0.6497,0.7377
296,0.6859,0.4382,0.6787,0.709,0.8427,0.6287,0.7013,0.6497,0.636,0.7412,0.6112,0.6022,0.6115,0.6204,0.7284,0.6002,0.7634,0.5811,0.6758,0.716,0.5896,0.7492,0.6009,0.5941,0.7093,0.4173,0.7220917344093323,0.6459716558456421,2.1439,0.6231,0.6509,0.6244,0.6471,0.7475
297,0.685,0.4408,0.6781,0.7157,0.8373,0.6292,0.7014,0.6485,0.6376,0.7412,0.6091,0.6043,0.6109,0.6226,0.7205,0.5952,0.7663,0.5777,0.6747,0.7089,0.588,0.7511,0.5975,0.5946,0.7056,0.4115,0.7244422435760498,0.6462629437446594,2.1509,0.6213,0.6528,0.6225,0.649,0.7427
298,0.6874,0.4377,0.6799,0.7126,0.8427,0.6276,0.7035,0.6477,0.6362,0.7397,0.6111,0.6037,0.6113,0.62,0.7292,0.5997,0.76,0.581,0.6751,0.7152,0.5884,0.751,0.6001,0.5934,0.7078,0.4134,0.7196929454803467,0.6479527354240417,2.1579,0.6228,0.6512,0.624,0.6475,0.7469
299,0.6867,0.4383,0.6794,0.7121,0.8414,0.6305,0.6977,0.6511,0.6371,0.7432,0.6111,0.6006,0.6115,0.6205,0.7291,0.599,0.7629,0.5798,0.6729,0.7157,0.5903,0.7472,0.6011,0.5949,0.7102,0.4209,0.7220084071159363,0.6475078463554382,2.1651,0.6235,0.6493,0.6246,0.6475,0.7479
300,0.6866,0.4394,0.6794,0.7166,0.8392,0.6284,0.7032,0.6481,0.6372,0.7401,0.6093,0.6058,0.6105,0.6209,0.7231,0.5971,0.7626,0.5794,0.676,0.7106,0.5875,0.7533,0.5977,0.594,0.7052,0.4226,0.7199367880821228,0.6488504409790039,2.1723,0.6218,0.6529,0.623,0.6489,0.7436
301,0.6858,0.439,0.6786,0.7123,0.8404,0.6289,0.7009,0.6493,0.6364,0.7412,0.6102,0.6016,0.6111,0.6205,0.7268,0.5978,0.7636,0.5794,0.6742,0.7129,0.5894,0.7495,0.5997,0.5949,0.7083,0.4135,0.7225275635719299,0.6456285119056702,2.1793,0.6224,0.6509,0.6236,0.6477,0.7459
302,0.6854,0.4407,0.6785,0.7176,0.837,0.6284,0.7034,0.6479,0.6375,0.7398,0.6089,0.6058,0.6107,0.6225,0.7203,0.5939,0.7649,0.5774,0.6757,0.7055,0.5874,0.7538,0.5968,0.5948,0.7039,0.4145,0.7223473191261292,0.6457801461219788,2.1864,0.6208,0.6537,0.6223,0.6496,0.7413
303,0.6881,0.434,0.6814,0.7032,0.8493,0.6309,0.6954,0.6561,0.634,0.7446,0.6127,0.5988,0.6121,0.6182,0.7373,0.6043,0.7563,0.5837,0.672,0.7246,0.59,0.7451,0.6048,0.5917,0.7146,0.4127,0.7204684615135193,0.6478090882301331,2.1934,0.6252,0.6459,0.6276,0.6438,0.7541
304,0.6894,0.4309,0.6843,0.698,0.8553,0.6313,0.6948,0.6591,0.6326,0.7453,0.6121,0.5987,0.6115,0.6152,0.7433,0.6092,0.7508,0.5876,0.673,0.7313,0.5906,0.7432,0.6094,0.5906,0.7175,0.4146,0.7221828103065491,0.646819531917572,2.2004,0.6265,0.6437,0.6304,0.6419,0.7585
305,0.6884,0.4338,0.6819,0.7019,0.8507,0.6309,0.695,0.6587,0.6322,0.7453,0.6123,0.6001,0.6118,0.618,0.7364,0.6046,0.7566,0.5839,0.6722,0.7248,0.5908,0.7461,0.606,0.5926,0.7146,0.4106,0.7249219417572021,0.6459577083587646,2.2074,0.6254,0.6463,0.6285,0.6434,0.7544
306,0.6874,0.4366,0.6801,0.709,0.8451,0.6301,0.6993,0.6535,0.6354,0.7424,0.6113,0.6039,0.6113,0.6196,0.7295,0.6031,0.7578,0.5833,0.6761,0.72,0.5897,0.7493,0.6022,0.5938,0.7101,0.4141,0.7249482870101929,0.6467018127441406,2.2144,0.6243,0.6494,0.6261,0.6468,0.7494
307,0.6878,0.4361,0.6804,0.7084,0.8459,0.6305,0.6968,0.6561,0.6336,0.7443,0.6112,0.6058,0.6114,0.6203,0.728,0.603,0.7573,0.5831,0.675,0.7207,0.5902,0.7502,0.6028,0.5941,0.7107,0.4184,0.7213867902755737,0.6474619507789612,2.2215,0.6245,0.6492,0.6268,0.6463,0.7499
308,0.6871,0.4381,0.6797,0.7132,0.8418,0.6316,0.6947,0.6526,0.6373,0.7445,0.6098,0.6061,0.6106,0.6206,0.7236,0.6002,0.7605,0.5813,0.6766,0.7157,0.5899,0.7477,0.6003,0.5952,0.7089,0.4136,0.7245908379554749,0.6459497213363647,2.2285,0.6237,0.6494,0.6249,0.6486,0.7469
309,0.6868,0.4378,0.6794,0.7108,0.8432,0.63,0.6979,0.6521,0.6357,0.7428,0.61,0.6072,0.6107,0.6204,0.7239,0.6001,0.7602,0.5817,0.6784,0.7131,0.5891,0.7503,0.6004,0.5943,0.7082,0.4134,0.7252128720283508,0.643036961555481,2.2356,0.6232,0.6507,0.6249,0.6479,0.7462
310,0.6869,0.4387,0.6795,0.7137,0.8417,0.6281,0.7049,0.6491,0.6367,0.7394,0.6095,0.6083,0.6103,0.6202,0.7226,0.5965,0.7618,0.5794,0.6772,0.7081,0.587,0.754,0.598,0.5933,0.705,0.4164,0.7237603068351746,0.6470310091972351,2.2426,0.6216,0.6535,0.6233,0.6482,0.7434
311,0.6878,0.4362,0.6805,0.708,0.8459,0.6296,0.6987,0.6519,0.6357,0.7422,0.6121,0.6023,0.6119,0.6197,0.7309,0.6031,0.7594,0.5833,0.678,0.7186,0.5906,0.7471,0.603,0.5944,0.7115,0.4202,0.7206915616989136,0.6477352380752563,2.2498,0.6246,0.6487,0.6261,0.6472,0.7498
312,0.6865,0.4371,0.6794,0.7075,0.8437,0.6317,0.6954,0.6544,0.6365,0.7445,0.6124,0.599,0.6124,0.6207,0.7313,0.6014,0.7634,0.5815,0.677,0.7166,0.5914,0.7445,0.6028,0.595,0.7129,0.4128,0.7186402082443237,0.6512245535850525,2.2568,0.6247,0.6479,0.6261,0.6473,0.7498
313,0.6846,0.4415,0.6782,0.7198,0.835,0.6292,0.7021,0.6474,0.6393,0.74,0.6083,0.609,0.6105,0.6234,0.7156,0.5928,0.766,0.5771,0.6781,0.7016,0.5874,0.7537,0.596,0.5961,0.7027,0.4151,0.7229810357093811,0.646434485912323,2.2638,0.6205,0.6545,0.6218,0.6513,0.739
314,0.6865,0.4396,0.6794,0.7177,0.839,0.6291,0.7014,0.6476,0.6387,0.7405,0.6088,0.6104,0.6101,0.6213,0.7191,0.5941,0.7622,0.5784,0.6779,0.7035,0.587,0.7534,0.5968,0.5948,0.7032,0.4165,0.7222080826759338,0.6470250487327576,2.2709,0.6211,0.6534,0.6225,0.6501,0.7411
315,0.6897,0.4323,0.6832,0.7029,0.8522,0.6304,0.6961,0.6546,0.6346,0.7436,0.6123,0.6005,0.6116,0.6163,0.7397,0.6065,0.7524,0.5859,0.6755,0.7258,0.5914,0.7436,0.6076,0.5928,0.7154,0.42,0.7209134697914124,0.6489322781562805,2.278,0.6261,0.645,0.6286,0.6444,0.7553
316,0.6875,0.4365,0.68,0.7106,0.8444,0.6294,0.7005,0.6511,0.6363,0.7413,0.6111,0.6063,0.6112,0.6202,0.7269,0.6006,0.7585,0.5823,0.6791,0.7133,0.5888,0.7513,0.6008,0.5939,0.7079,0.4221,0.7214975357055664,0.6474419832229614,2.2852,0.6235,0.6506,0.6251,0.648,0.7468
317,0.687,0.4374,0.6797,0.7109,0.8425,0.6332,0.6923,0.6551,0.6377,0.7461,0.6114,0.6033,0.6119,0.6217,0.7261,0.5991,0.763,0.5803,0.6774,0.7126,0.5909,0.7465,0.6012,0.596,0.7103,0.6411,0.7221447825431824,0.6478748917579651,2.296,0.6243,0.6485,0.6256,0.6487,0.7475
318,0.6892,0.4349,0.6817,0.7095,0.8469,0.6308,0.6977,0.6564,0.6343,0.7433,0.6115,0.6041,0.6115,0.62,0.7292,0.6038,0.755,0.5837,0.677,0.7206,0.5897,0.7502,0.6028,0.5934,0.7108,0.516,0.7202502489089966,0.6494808793067932,2.3047,0.625,0.6484,0.6272,0.6468,0.7502
319,0.6857,0.439,0.6786,0.7127,0.8397,0.6312,0.695,0.6512,0.6381,0.7437,0.6104,0.6021,0.6115,0.6221,0.7235,0.5958,0.7664,0.5781,0.6771,0.7072,0.5902,0.746,0.5997,0.596,0.7094,0.4633,0.7247198224067688,0.647424042224884,2.3125,0.6227,0.6497,0.6238,0.6492,0.7447
320,0.6868,0.4388,0.6795,0.7165,0.8395,0.6302,0.6973,0.6503,0.6378,0.7425,0.6094,0.6069,0.6108,0.6222,0.7198,0.5945,0.7638,0.5777,0.6765,0.7048,0.5887,0.7503,0.5985,0.5953,0.7063,0.4461,0.7202950716018677,0.6479347348213196,2.3201,0.6219,0.6514,0.6234,0.6497,0.7426
321,0.6886,0.434,0.6817,0.7045,0.8486,0.6326,0.6911,0.6565,0.6359,0.7462,0.6127,0.5984,0.6122,0.6188,0.7351,0.6023,0.76,0.5821,0.674,0.7201,0.593,0.7413,0.6067,0.595,0.7165,0.4415,0.7188036441802979,0.6495547294616699,2.3276,0.6258,0.645,0.6278,0.6456,0.7533
322,0.6896,0.4339,0.6822,0.7084,0.8482,0.6322,0.6944,0.6563,0.6362,0.7446,0.6116,0.6029,0.6113,0.6185,0.7319,0.604,0.7548,0.584,0.6764,0.7209,0.5906,0.746,0.6045,0.5935,0.7129,0.4305,0.7226782441139221,0.6493851542472839,2.3349,0.6256,0.6464,0.6277,0.6466,0.7517
323,0.6896,0.4339,0.6824,0.7069,0.8488,0.6316,0.6947,0.6563,0.6353,0.7442,0.6123,0.5996,0.6119,0.6187,0.734,0.604,0.7559,0.5836,0.6755,0.722,0.5915,0.7445,0.606,0.5937,0.7148,0.4194,0.7227368354797363,0.6479048132896423,2.342,0.6258,0.6457,0.628,0.646,0.7528
324,0.6881,0.4355,0.6807,0.7092,0.8453,0.6315,0.6958,0.6541,0.637,0.7436,0.6122,0.6002,0.612,0.6199,0.7314,0.6008,0.7599,0.5814,0.6769,0.7159,0.5902,0.7454,0.6027,0.5939,0.7119,0.4204,0.7213618755340576,0.6499596834182739,2.3491,0.6246,0.6474,0.6262,0.6474,0.7496
325,0.6883,0.4352,0.6808,0.7093,0.8458,0.6286,0.7023,0.6509,0.6362,0.7396,0.6124,0.5992,0.612,0.6191,0.7333,0.6,0.759,0.5808,0.6757,0.7153,0.5902,0.7476,0.6033,0.5936,0.7119,0.4153,0.7155755758285522,0.6525552272796631,2.3562,0.6239,0.6487,0.6256,0.6468,0.7492
326,0.69,0.433,0.6831,0.7056,0.8492,0.6337,0.6904,0.6588,0.6362,0.7469,0.6131,0.5956,0.6124,0.6181,0.7386,0.6034,0.7571,0.5828,0.6747,0.7213,0.5936,0.7407,0.6078,0.5953,0.7175,0.4176,0.7169488668441772,0.6529462337493896,2.3633,0.6268,0.6434,0.629,0.646,0.7547
327,0.688,0.4378,0.6805,0.7167,0.8404,0.6323,0.6959,0.6527,0.6396,0.7433,0.6109,0.6035,0.6116,0.6218,0.7246,0.5956,0.7636,0.5783,0.6776,0.7077,0.5896,0.7487,0.5994,0.596,0.7074,0.4243,0.7229793667793274,0.6477611660957336,2.3705,0.6233,0.6499,0.6245,0.6503,0.7447
328,0.6907,0.4317,0.6838,0.705,0.8519,0.6318,0.6951,0.6559,0.6367,0.7435,0.6131,0.5986,0.6123,0.6169,0.7408,0.6059,0.7518,0.5851,0.6743,0.7259,0.593,0.7418,0.6095,0.5941,0.7172,0.4082,0.721714198589325,0.6497182846069336,2.3774,0.6269,0.6438,0.6293,0.6454,0.7559
329,0.689,0.4359,0.6812,0.7145,0.8438,0.6286,0.7024,0.6489,0.6378,0.7392,0.6118,0.6035,0.6115,0.6192,0.7307,0.5994,0.7574,0.5812,0.6775,0.7131,0.5888,0.7489,0.6011,0.5935,0.709,0.4206,0.7194158434867859,0.6495906114578247,2.3845,0.6235,0.6496,0.6248,0.6485,0.7472
330,0.6868,0.4391,0.6797,0.7187,0.8382,0.6286,0.7046,0.6463,0.6412,0.7375,0.611,0.6033,0.6116,0.6216,0.7248,0.5914,0.7671,0.5757,0.6769,0.7,0.5883,0.7507,0.5979,0.5955,0.7057,0.4096,0.717708945274353,0.6490439772605896,2.3916,0.6212,0.653,0.6222,0.6508,0.7412
331,0.6902,0.4321,0.6836,0.7041,0.8506,0.6358,0.6846,0.661,0.6372,0.7496,0.6132,0.5957,0.6124,0.6174,0.7405,0.6061,0.7555,0.5849,0.6752,0.7254,0.5953,0.7367,0.6105,0.5962,0.7202,0.4145,0.7232396006584167,0.6471746563911438,2.3986,0.6281,0.6409,0.6305,0.646,0.7573
332,0.6893,0.4356,0.6815,0.7163,0.8431,0.6323,0.6931,0.6528,0.6389,0.7442,0.6106,0.6084,0.6108,0.6201,0.7248,0.5978,0.7575,0.5805,0.6787,0.7099,0.5889,0.7494,0.6001,0.595,0.7071,0.4147,0.7186171412467957,0.6498739123344421,2.4056,0.6238,0.6488,0.6251,0.6498,0.7458
333,0.6895,0.435,0.6817,0.7143,0.8446,0.6296,0.6979,0.6511,0.637,0.7411,0.6112,0.6046,0.6111,0.619,0.7291,0.5985,0.7576,0.5806,0.6773,0.712,0.589,0.7492,0.601,0.5941,0.7084,0.4116,0.7210351824760437,0.6493472456932068,2.4126,0.6236,0.6489,0.6251,0.6483,0.747
334,0.6917,0.4305,0.6846,0.7062,0.8525,0.6324,0.6927,0.6562,0.637,0.744,0.613,0.5995,0.6123,0.6167,0.7406,0.6064,0.7503,0.5858,0.6763,0.7252,0.5923,0.7422,0.6087,0.5938,0.716,0.417,0.7212417721748352,0.6481861472129822,2.4197,0.6272,0.643,0.6295,0.646,0.7557
335,0.6897,0.434,0.6821,0.7106,0.8463,0.6319,0.6935,0.6546,0.6371,0.7439,0.6125,0.5994,0.6121,0.6194,0.7329,0.6013,0.7576,0.5819,0.6777,0.7162,0.5916,0.7444,0.6041,0.5953,0.7128,0.4163,0.7220652103424072,0.6492733955383301,2.4268,0.6254,0.6458,0.627,0.648,0.7504
336,0.6882,0.4382,0.6809,0.7212,0.8383,0.6322,0.6937,0.6519,0.6396,0.7435,0.61,0.6057,0.6113,0.6231,0.7197,0.5939,0.7616,0.5776,0.6778,0.7048,0.5898,0.749,0.5991,0.5974,0.7061,0.4134,0.71921706199646,0.6499996185302734,2.4338,0.6228,0.6496,0.6242,0.6518,0.7425
337,0.6908,0.4344,0.6827,0.717,0.845,0.6277,0.703,0.6495,0.6366,0.7379,0.6116,0.6054,0.6114,0.6195,0.7288,0.599,0.753,0.5813,0.6772,0.7127,0.5885,0.7522,0.6012,0.5937,0.7074,0.4191,0.720610499382019,0.649115800857544,2.4409,0.6235,0.6496,0.6252,0.6488,0.7464
338,0.6893,0.4351,0.6816,0.7137,0.8442,0.6304,0.6967,0.6524,0.6369,0.7419,0.6123,0.603,0.6122,0.621,0.7277,0.5987,0.7583,0.5807,0.6791,0.7117,0.5912,0.748,0.6025,0.5964,0.71,0.4122,0.7226377129554749,0.6482878923416138,2.4479,0.6244,0.6482,0.6259,0.6494,0.7471
339,0.688,0.4376,0.6805,0.7177,0.8402,0.6317,0.6956,0.65,0.6407,0.7427,0.6111,0.6056,0.6116,0.6218,0.7226,0.5932,0.7635,0.5777,0.6803,0.7017,0.5901,0.7482,0.5993,0.5977,0.7064,0.4171,0.7213035225868225,0.6486330032348633,2.455,0.6228,0.6501,0.6238,0.6516,0.7427
340,0.6892,0.4361,0.6815,0.7144,0.8432,0.6323,0.691,0.6526,0.6386,0.745,0.6121,0.602,0.6121,0.6208,0.7272,0.5969,0.7619,0.5793,0.679,0.7081,0.5918,0.7439,0.6023,0.597,0.7112,0.4188,0.7206762433052063,0.6481342315673828,2.4621,0.6245,0.647,0.6256,0.65,0.7469
341,0.6908,0.4328,0.6834,0.7091,0.8484,0.6331,0.6911,0.6567,0.6372,0.7452,0.6132,0.5984,0.6125,0.6188,0.7357,0.6026,0.7564,0.5826,0.6779,0.7183,0.594,0.7421,0.6073,0.5966,0.7162,0.4093,0.7194989323616028,0.6509751677513123,2.4691,0.6267,0.6442,0.6285,0.6479,0.7528
342,0.6879,0.4383,0.6805,0.7182,0.8395,0.6311,0.6971,0.651,0.6396,0.7416,0.6115,0.6033,0.6121,0.6224,0.724,0.593,0.7654,0.5764,0.6778,0.7022,0.5902,0.7475,0.5997,0.5968,0.7083,0.4126,0.7230556607246399,0.6485053300857544,2.4761,0.6227,0.6503,0.6239,0.651,0.7431
343,0.689,0.4382,0.6816,0.7232,0.8387,0.6296,0.7029,0.6478,0.6415,0.7384,0.6108,0.6058,0.6114,0.6219,0.7226,0.594,0.7612,0.5781,0.6794,0.7031,0.5884,0.7507,0.5982,0.5958,0.7052,0.4201,0.717138946056366,0.65150386095047,2.4832,0.6224,0.6518,0.6234,0.6524,0.7416
344,0.6886,0.4388,0.6813,0.7235,0.8376,0.6307,0.7006,0.6504,0.6401,0.7401,0.6106,0.6058,0.6117,0.6234,0.7206,0.5934,0.7633,0.5772,0.6794,0.7016,0.5896,0.7509,0.5988,0.5973,0.706,0.4091,0.7210464477539062,0.6490898728370667,2.4902,0.6226,0.6519,0.6239,0.6527,0.7412
345,0.6875,0.4397,0.6808,0.7259,0.8353,0.6297,0.7015,0.6469,0.642,0.7387,0.6102,0.6071,0.6114,0.6236,0.719,0.5917,0.7644,0.5766,0.6801,0.6988,0.5891,0.7513,0.5977,0.5978,0.7043,0.4168,0.7199050784111023,0.6498340368270874,2.4973,0.6216,0.6528,0.6227,0.6539,0.7392
346,0.6919,0.4332,0.6838,0.7143,0.8474,0.629,0.6989,0.6506,0.6366,0.7403,0.6125,0.6029,0.6118,0.6182,0.7339,0.6005,0.7544,0.5818,0.678,0.7146,0.5917,0.7464,0.6047,0.5957,0.7118,0.4153,0.7170021533966064,0.6526988744735718,2.5043,0.6251,0.6472,0.6265,0.6486,0.7496
347,0.6902,0.435,0.6823,0.7153,0.8443,0.6341,0.6908,0.6555,0.6394,0.7459,0.6115,0.606,0.6114,0.6199,0.7271,0.5984,0.7581,0.5804,0.678,0.7115,0.5915,0.7459,0.6025,0.5968,0.7105,0.4111,0.7221123576164246,0.6481462121009827,2.5113,0.6251,0.6472,0.6264,0.6499,0.7479
348,0.6912,0.4329,0.6837,0.7102,0.8483,0.6345,0.6885,0.6576,0.6383,0.7469,0.6132,0.5997,0.6125,0.6189,0.7356,0.6032,0.7562,0.5831,0.6783,0.7188,0.5949,0.7398,0.6084,0.5974,0.7173,0.414,0.7208192944526672,0.6494868993759155,2.5183,0.6274,0.6434,0.6291,0.6486,0.7534
349,0.6895,0.4361,0.6817,0.7174,0.8421,0.6309,0.6968,0.6518,0.6388,0.7415,0.6121,0.6033,0.6121,0.6212,0.7266,0.5976,0.7594,0.5797,0.6789,0.7093,0.5911,0.747,0.6019,0.5965,0.7105,0.4174,0.7154290676116943,0.652848482131958,2.5254,0.6242,0.6485,0.6254,0.6506,0.746
350,0.6912,0.4324,0.6838,0.7088,0.8493,0.6352,0.687,0.6603,0.6373,0.7482,0.6125,0.6021,0.6119,0.618,0.7345,0.6034,0.7551,0.5832,0.677,0.7203,0.5948,0.7404,0.6087,0.5971,0.7174,0.4155,0.7211911678314209,0.6487307548522949,2.5325,0.6274,0.6434,0.6296,0.6476,0.7539
351,0.6905,0.4363,0.6826,0.7215,0.8415,0.6308,0.6995,0.6511,0.64,0.7403,0.6115,0.607,0.6116,0.621,0.7246,0.5963,0.7572,0.5791,0.6777,0.7076,0.5896,0.7497,0.6005,0.5957,0.708,0.4194,0.7189978957176208,0.6503387689590454,2.5396,0.6237,0.6499,0.625,0.6512,0.7444
352,0.6911,0.4348,0.683,0.7169,0.8446,0.6299,0.6999,0.6518,0.6376,0.7401,0.6124,0.6031,0.612,0.6195,0.7309,0.6001,0.7557,0.5815,0.6795,0.7131,0.5912,0.7471,0.6033,0.596,0.7108,0.4177,0.722034752368927,0.6499617099761963,2.5467,0.6249,0.6481,0.6263,0.6499,0.7479
353,0.6875,0.4394,0.6805,0.7221,0.8365,0.6327,0.696,0.6514,0.642,0.7423,0.6115,0.6025,0.6125,0.6238,0.722,0.591,0.7675,0.5747,0.6766,0.7004,0.5906,0.746,0.5993,0.5974,0.709,0.4183,0.7171509265899658,0.6517811417579651,2.5538,0.6227,0.6503,0.6237,0.6524,0.742
354,0.6928,0.4319,0.6849,0.7116,0.8504,0.6318,0.696,0.656,0.637,0.7426,0.6126,0.6051,0.6119,0.6177,0.7348,0.6037,0.7502,0.5843,0.6796,0.719,0.5921,0.7459,0.6067,0.5953,0.7134,0.4133,0.7220206260681152,0.6494489908218384,2.5608,0.6266,0.6458,0.6288,0.6482,0.752
355,0.6916,0.432,0.6844,0.7079,0.8498,0.6346,0.6886,0.6605,0.6367,0.7473,0.614,0.5965,0.6132,0.6187,0.7384,0.6036,0.7559,0.5828,0.6772,0.7192,0.5956,0.7386,0.6099,0.5974,0.7188,0.4197,0.719849169254303,0.6519647240638733,2.5679,0.6279,0.6423,0.6302,0.6476,0.7547
356,0.6901,0.4366,0.6823,0.7187,0.8411,0.6356,0.6897,0.657,0.6411,0.7466,0.6128,0.6002,0.6128,0.6223,0.7277,0.5961,0.7623,0.5776,0.6771,0.7088,0.5936,0.7421,0.6037,0.5986,0.7133,0.4148,0.7202153205871582,0.6488524675369263,2.575,0.6256,0.6462,0.6267,0.6516,0.7475
357,0.6892,0.4372,0.6815,0.7178,0.8413,0.6305,0.6987,0.6493,0.6403,0.7404,0.6133,0.6007,0.613,0.6218,0.7287,0.5939,0.7644,0.5772,0.68,0.7022,0.5913,0.7453,0.601,0.5974,0.7099,0.4128,0.723360002040863,0.6483277678489685,2.582,0.6236,0.6493,0.6244,0.6515,0.7445
358,0.6897,0.4367,0.682,0.7186,0.8414,0.634,0.6923,0.6545,0.6405,0.745,0.6123,0.6037,0.6124,0.6223,0.7251,0.5943,0.762,0.5775,0.6785,0.7047,0.5919,0.7455,0.6016,0.5981,0.7101,0.4116,0.7190444469451904,0.6514938473701477,2.589,0.6244,0.648,0.6256,0.6516,0.7453
359,0.6931,0.4321,0.6852,0.7119,0.8504,0.632,0.6949,0.6557,0.6372,0.7426,0.6132,0.6032,0.6124,0.6178,0.7367,0.6039,0.7504,0.5844,0.6801,0.7191,0.5933,0.7439,0.6077,0.5964,0.7147,0.42,0.7229228615760803,0.6484973430633545,2.5962,0.6271,0.6449,0.6291,0.6487,0.7527
360,0.6888,0.4396,0.6816,0.7253,0.8367,0.6319,0.6963,0.6505,0.6411,0.7424,0.6106,0.6071,0.6117,0.6237,0.7183,0.5914,0.7657,0.5761,0.6811,0.698,0.5899,0.7482,0.5983,0.5983,0.7059,0.4116,0.7244573831558228,0.6471287608146667,2.6031,0.6225,0.6514,0.6236,0.6539,0.7403
361,0.6893,0.4369,0.6816,0.7167,0.8416,0.6327,0.6953,0.6534,0.6402,0.7428,0.6139,0.5994,0.6137,0.6229,0.7289,0.5952,0.7639,0.5773,0.6778,0.7065,0.5935,0.7432,0.6038,0.5984,0.7133,0.4089,0.7209051251411438,0.6494749188423157,2.6101,0.6249,0.6477,0.626,0.6512,0.7466
362,0.6926,0.4319,0.685,0.7107,0.8499,0.6331,0.6928,0.6573,0.6376,0.744,0.6138,0.5989,0.613,0.6186,0.7377,0.6036,0.7529,0.5837,0.6802,0.7193,0.5944,0.7423,0.6081,0.5974,0.7156,0.4123,0.720906674861908,0.6509612202644348,2.6171,0.6275,0.6438,0.6294,0.6489,0.7533
363,0.6916,0.4313,0.6846,0.7072,0.8506,0.6358,0.6863,0.6612,0.6377,0.7487,0.6144,0.5981,0.6135,0.6192,0.7371,0.6029,0.7549,0.5826,0.6781,0.7178,0.5955,0.7385,0.6095,0.5975,0.7186,0.4193,0.7178272008895874,0.6528225541114807,2.6242,0.628,0.6418,0.6303,0.6479,0.7546
364,0.6875,0.4405,0.6809,0.7267,0.8339,0.6335,0.6923,0.6486,0.645,0.7431,0.6109,0.604,0.6123,0.6248,0.7181,0.5877,0.7698,0.5734,0.6797,0.6936,0.5915,0.7443,0.5986,0.6005,0.707,0.4082,0.7194923162460327,0.6503247618675232,2.6312,0.6222,0.6502,0.6228,0.6553,0.7391
365,0.6912,0.4346,0.6832,0.7159,0.8447,0.6341,0.6926,0.6539,0.6418,0.7443,0.6134,0.6001,0.6128,0.6205,0.7311,0.5969,0.7596,0.5789,0.6788,0.7086,0.5939,0.7418,0.6047,0.5986,0.7135,0.4183,0.7170714735984802,0.651904821395874,2.6383,0.6259,0.6457,0.6267,0.6511,0.7484
366,0.6926,0.4326,0.6845,0.714,0.8479,0.6315,0.6986,0.6529,0.6397,0.7406,0.6139,0.5993,0.6131,0.6191,0.7358,0.5988,0.7554,0.5804,0.6786,0.7117,0.5932,0.7441,0.6056,0.5972,0.7136,0.4199,0.7180655598640442,0.6535926461219788,2.6454,0.626,0.646,0.6273,0.6497,0.7499
367,0.6884,0.4394,0.6814,0.7264,0.8357,0.6313,0.6989,0.6487,0.6428,0.7402,0.611,0.6066,0.6121,0.6243,0.7182,0.5893,0.7651,0.5752,0.6811,0.6953,0.5904,0.7493,0.5985,0.5996,0.7052,0.4141,0.7203083038330078,0.6504045724868774,2.6524,0.6221,0.6519,0.6232,0.6548,0.7389
368,0.6921,0.4328,0.6843,0.7127,0.8473,0.6355,0.6877,0.6565,0.641,0.7467,0.6146,0.5972,0.6137,0.6205,0.7345,0.5992,0.7571,0.5801,0.6783,0.7127,0.5946,0.7378,0.6065,0.598,0.7162,0.408,0.7205303311347961,0.6500235199928284,2.6594,0.6272,0.6425,0.6282,0.6501,0.7515
369,0.6915,0.4292,0.686,0.7014,0.8536,0.6366,0.6839,0.6607,0.6392,0.7491,0.6156,0.5899,0.6148,0.6182,0.7455,0.6033,0.7557,0.5824,0.6767,0.7193,0.5983,0.7309,0.614,0.5985,0.7234,0.421,0.7212405800819397,0.6503567099571228,2.6665,0.6291,0.6379,0.6316,0.6468,0.7582
370,0.6886,0.4389,0.6815,0.7256,0.8361,0.6331,0.6962,0.6503,0.6442,0.7417,0.6121,0.6039,0.613,0.6251,0.72,0.5886,0.7668,0.5737,0.6785,0.6962,0.5907,0.7466,0.5988,0.5988,0.7073,0.4148,0.7177501916885376,0.6502789258956909,2.6736,0.6226,0.6505,0.6235,0.6544,0.7403
371,0.6858,0.4413,0.6797,0.7257,0.8322,0.6333,0.6969,0.6478,0.6474,0.7408,0.612,0.601,0.6135,0.6267,0.7183,0.5835,0.7748,0.5704,0.6774,0.6884,0.5927,0.7444,0.5992,0.6017,0.7084,0.419,0.7194117307662964,0.6512664556503296,2.6807,0.6215,0.6517,0.6221,0.6558,0.7376
372,0.6918,0.4334,0.6838,0.7143,0.8461,0.6355,0.6889,0.6557,0.6421,0.7459,0.6141,0.6001,0.6133,0.6208,0.7314,0.5961,0.7597,0.5784,0.6787,0.7078,0.5945,0.7397,0.6056,0.5989,0.7148,0.4201,0.719103217124939,0.6526928544044495,2.6878,0.6264,0.6444,0.6274,0.651,0.7492
373,0.6919,0.4333,0.6839,0.7152,0.8461,0.6349,0.6931,0.6561,0.6421,0.7437,0.6145,0.6013,0.6137,0.6216,0.7312,0.5953,0.7593,0.5776,0.6771,0.7079,0.5939,0.7437,0.6051,0.5984,0.714,0.4116,0.7181434035301208,0.6501312851905823,2.6948,0.6261,0.6461,0.6273,0.6509,0.7486
374,0.6926,0.4337,0.6843,0.7183,0.8457,0.6339,0.6951,0.6532,0.6433,0.7423,0.6138,0.6046,0.6131,0.6215,0.728,0.5949,0.7573,0.5784,0.6801,0.7049,0.5932,0.7455,0.6041,0.5988,0.7116,0.4196,0.7192829847335815,0.6522001028060913,2.7019,0.6257,0.6472,0.6266,0.6524,0.7465
375,0.6933,0.4305,0.6857,0.7103,0.8511,0.6352,0.6895,0.6568,0.6412,0.7452,0.6142,0.5997,0.6133,0.6184,0.7368,0.6007,0.7535,0.5815,0.6789,0.7148,0.5951,0.739,0.6084,0.5979,0.717,0.4146,0.7196320295333862,0.6526170969009399,2.7091,0.6277,0.6424,0.6291,0.6493,0.753
376,0.6924,0.4321,0.6848,0.7114,0.8487,0.6354,0.689,0.6565,0.6414,0.7459,0.6149,0.5983,0.6139,0.62,0.736,0.5971,0.7585,0.5787,0.678,0.7096,0.5949,0.7386,0.607,0.5983,0.7164,0.4124,0.719544529914856,0.6502230167388916,2.7161,0.6269,0.6433,0.6282,0.6498,0.7513
377,0.6916,0.4345,0.6836,0.7175,0.8441,0.6347,0.6932,0.6562,0.6417,0.7439,0.6142,0.6011,0.6136,0.622,0.7293,0.5951,0.7602,0.5778,0.6792,0.7059,0.5946,0.7436,0.6051,0.5998,0.7133,0.4219,0.7173457145690918,0.6530081033706665,2.7232,0.626,0.6465,0.6273,0.652,0.7473
378,0.6919,0.4343,0.6838,0.7172,0.8443,0.6342,0.6932,0.6543,0.6423,0.7432,0.6153,0.5966,0.6145,0.6222,0.7329,0.5954,0.7605,0.5776,0.6786,0.7077,0.595,0.7398,0.6058,0.5995,0.7152,0.4275,0.7165482044219971,0.6538659334182739,2.7305,0.6264,0.6449,0.6272,0.652,0.7487
379,0.6924,0.435,0.6841,0.7233,0.8426,0.6318,0.7001,0.6502,0.6437,0.7388,0.6139,0.6039,0.6133,0.6223,0.7274,0.5942,0.7584,0.5782,0.6819,0.7025,0.5925,0.747,0.6027,0.5991,0.7099,0.4238,0.7199558615684509,0.6517751812934875,2.7377,0.625,0.6489,0.6257,0.6541,0.7442
380,0.6947,0.4296,0.687,0.711,0.8526,0.6336,0.692,0.6559,0.6397,0.7438,0.614,0.6008,0.6132,0.6176,0.7388,0.601,0.7516,0.5821,0.68,0.7144,0.5948,0.7405,0.6086,0.5977,0.7163,0.4134,0.7195210456848145,0.6511207818984985,2.7447,0.6276,0.6429,0.6294,0.6492,0.7532
381,0.6937,0.4322,0.6856,0.715,0.8481,0.6359,0.6892,0.6574,0.6418,0.746,0.6146,0.5994,0.6136,0.6201,0.7341,0.599,0.7558,0.5804,0.6803,0.7112,0.5951,0.739,0.6074,0.5988,0.7164,0.4143,0.7215749025344849,0.6506379842758179,2.7517,0.6277,0.6431,0.6289,0.6512,0.7512
382,0.6928,0.4306,0.6855,0.7091,0.8503,0.637,0.6829,0.661,0.6397,0.7492,0.6153,0.5959,0.6143,0.6198,0.7377,0.6009,0.7544,0.5809,0.6767,0.7158,0.5978,0.7338,0.6118,0.5993,0.7209,0.4258,0.7158459424972534,0.6539736986160278,2.759,0.6288,0.6395,0.6307,0.6489,0.7548
383,0.6943,0.4313,0.6859,0.7161,0.8493,0.6318,0.6996,0.6533,0.6409,0.7394,0.6145,0.6025,0.6136,0.6199,0.7335,0.5985,0.7529,0.5805,0.6795,0.7107,0.593,0.7453,0.6062,0.5967,0.7137,0.4105,0.7179020047187805,0.6531696915626526,2.766,0.6264,0.6463,0.6279,0.6506,0.7493
384,0.6931,0.433,0.6848,0.7184,0.8458,0.634,0.696,0.6534,0.6436,0.7417,0.615,0.6004,0.6141,0.6215,0.7318,0.5967,0.7574,0.579,0.6799,0.7078,0.5944,0.7426,0.606,0.5988,0.7148,0.4185,0.7160483002662659,0.6533432602882385,2.7731,0.6266,0.6459,0.6275,0.6524,0.7484
385,0.6922,0.4363,0.6841,0.7261,0.8406,0.6323,0.6989,0.6493,0.6449,0.7397,0.6135,0.6048,0.6131,0.6229,0.7245,0.5924,0.7619,0.5771,0.6834,0.699,0.593,0.746,0.6021,0.6006,0.7093,0.4128,0.7221512198448181,0.650606095790863,2.7801,0.6247,0.6496,0.6251,0.6556,0.7426
386,0.692,0.4346,0.6838,0.7191,0.8435,0.6339,0.6933,0.6533,0.6427,0.7429,0.6148,0.6,0.6141,0.6227,0.7292,0.5939,0.7619,0.577,0.6812,0.7034,0.5944,0.7415,0.6044,0.5999,0.7133,0.42,0.7238399386405945,0.6487208008766174,2.7873,0.6258,0.6463,0.6265,0.6531,0.7465
387,0.6929,0.433,0.6846,0.7186,0.8456,0.6346,0.6942,0.6535,0.6443,0.7425,0.6147,0.6015,0.6138,0.6213,0.7306,0.596,0.758,0.5786,0.6801,0.7069,0.5945,0.7418,0.6055,0.5993,0.7141,0.412,0.7198395133018494,0.6515058279037476,2.7943,0.6265,0.6457,0.6272,0.6527,0.7479
388,0.6923,0.4351,0.6841,0.723,0.8422,0.6341,0.6941,0.6521,0.6445,0.7423,0.6138,0.6037,0.6133,0.6227,0.7253,0.594,0.7598,0.5778,0.6823,0.702,0.5937,0.7435,0.6033,0.6001,0.7115,0.4163,0.7191134691238403,0.6518988609313965,2.8013,0.6256,0.6472,0.6261,0.6545,0.7447
389,0.6947,0.4324,0.6861,0.7198,0.8472,0.6352,0.6909,0.6546,0.6438,0.744,0.614,0.603,0.6131,0.6201,0.7305,0.5979,0.7533,0.5802,0.6804,0.7093,0.5953,0.7406,0.6069,0.5998,0.7149,0.4178,0.7185849547386169,0.653506875038147,2.8084,0.6274,0.644,0.6282,0.6528,0.7492
390,0.6944,0.4318,0.686,0.7178,0.8479,0.6361,0.6889,0.6565,0.6432,0.7455,0.6139,0.6036,0.6131,0.6203,0.7298,0.5981,0.7549,0.5804,0.682,0.7084,0.5949,0.7414,0.6065,0.5995,0.7149,0.422,0.7183827757835388,0.6536544561386108,2.8156,0.6275,0.6441,0.6285,0.6526,0.7493
391,0.6875,0.44,0.681,0.7277,0.8334,0.634,0.6958,0.648,0.6493,0.7403,0.6126,0.6015,0.6135,0.6258,0.7187,0.5837,0.7722,0.5707,0.6787,0.688,0.5935,0.7438,0.6002,0.6023,0.7093,0.4166,0.718743622303009,0.6516933441162109,2.8227,0.6223,0.6507,0.6227,0.6568,0.7379
392,0.6909,0.4367,0.6831,0.7244,0.8396,0.6355,0.6919,0.6524,0.6464,0.7436,0.6135,0.6063,0.6137,0.6252,0.7202,0.5889,0.7656,0.5743,0.681,0.695,0.594,0.745,0.6022,0.6019,0.7102,0.4155,0.7166680693626404,0.6527587175369263,2.8297,0.6246,0.6491,0.6251,0.6558,0.7417
393,0.6934,0.433,0.6851,0.7175,0.8466,0.6355,0.691,0.6554,0.6437,0.744,0.615,0.6022,0.6141,0.6219,0.7299,0.5964,0.7581,0.5789,0.682,0.7059,0.5951,0.7408,0.6064,0.5995,0.7154,0.4213,0.7217987775802612,0.6512744426727295,2.8369,0.6271,0.645,0.628,0.6529,0.7484
394,0.6939,0.432,0.6857,0.7158,0.848,0.6349,0.6917,0.6574,0.6412,0.7439,0.6156,0.5999,0.6146,0.6218,0.7326,0.5983,0.755,0.5796,0.6796,0.7103,0.5958,0.7399,0.6084,0.5989,0.7174,0.4163,0.7182690501213074,0.6528145670890808,2.844,0.6277,0.6437,0.6291,0.6515,0.7504
395,0.6947,0.429,0.6872,0.7105,0.8523,0.6379,0.6811,0.6634,0.6398,0.7497,0.6147,0.6003,0.6137,0.6191,0.7349,0.6028,0.75,0.5826,0.6791,0.717,0.598,0.7346,0.6128,0.5995,0.7211,0.416,0.7192623019218445,0.6518529653549194,2.851,0.6296,0.639,0.6319,0.6496,0.755
396,0.6942,0.428,0.6875,0.707,0.8545,0.6369,0.6846,0.662,0.6397,0.748,0.615,0.5995,0.6141,0.6185,0.7375,0.6013,0.7518,0.5816,0.6782,0.7159,0.5978,0.7357,0.6128,0.5992,0.721,0.4193,0.7165389657020569,0.6545043587684631,2.8582,0.629,0.6399,0.6316,0.6485,0.7554
397,0.6929,0.4334,0.6847,0.7181,0.845,0.6366,0.6868,0.6563,0.6441,0.7457,0.6155,0.599,0.6147,0.623,0.7294,0.5958,0.7594,0.5778,0.6803,0.7066,0.5969,0.7365,0.6078,0.6007,0.7177,0.4245,0.7190956473350525,0.6526051163673401,2.8654,0.6275,0.643,0.6283,0.6532,0.7489
398,0.6931,0.4339,0.6848,0.7199,0.8441,0.6358,0.6888,0.6539,0.6451,0.7444,0.6154,0.5982,0.6145,0.6225,0.7301,0.5943,0.7617,0.5769,0.6808,0.7037,0.597,0.7362,0.6071,0.6014,0.717,0.4164,0.7214370965957642,0.6522100567817688,2.8725,0.6271,0.6438,0.6274,0.6539,0.7479
399,0.6913,0.4374,0.6838,0.7308,0.8378,0.6295,0.7059,0.645,0.6473,0.7338,0.6133,0.6096,0.6133,0.6251,0.7188,0.5886,0.7621,0.5752,0.6827,0.6929,0.5912,0.7506,0.6,0.6001,0.7062,0.4228,0.7203246355056763,0.6538140773773193,2.8796,0.6228,0.6531,0.6235,0.6572,0.7379
401,0.6939,0.4157,0.6902,0.7628,0.8259,0.663,0.6187,0.6671,0.6793,0.7682,0.625,0.553,0.6321,0.6584,0.7165,0.6079,0.6948,0.5929,0.7168,0.7041,0.6443,0.6487,0.6508,0.6475,0.7633,1.6467,0.6753673553466797,0.6756455898284912,0.0275,0.6468,0.5862,0.6466,0.693,0.7556
402,0.7012,0.4105,0.698,0.783,0.8291,0.6495,0.6273,0.6476,0.6855,0.7531,0.6256,0.5565,0.6349,0.6679,0.7107,0.6141,0.6673,0.6072,0.7541,0.6972,0.6313,0.6743,0.6349,0.6486,0.739,0.6233,0.6512086391448975,0.6879408955574036,0.038,0.6443,0.5872,0.6445,0.7078,0.7458
403,0.7226,0.3763,0.7169,0.7304,0.8688,0.6879,0.5636,0.6875,0.6954,0.796,0.6458,0.487,0.6497,0.644,0.8032,0.6523,0.6219,0.6243,0.7467,0.7566,0.6611,0.6066,0.7001,0.6495,0.7901,0.5578,0.6358599662780762,0.6966910362243652,0.0474,0.6739,0.5311,0.6757,0.6932,0.8029
404,0.7008,0.4105,0.6957,0.7741,0.8271,0.6809,0.5659,0.6739,0.6999,0.787,0.6368,0.517,0.6506,0.6857,0.733,0.6216,0.6669,0.6082,0.7625,0.7101,0.6463,0.6328,0.6446,0.6591,0.762,0.5237,0.6269572377204895,0.7010581493377686,0.0562,0.6573,0.5586,0.6546,0.7163,0.7638
405,0.6747,0.4308,0.6942,0.8014,0.7939,0.6776,0.5826,0.6646,0.7103,0.7796,0.6294,0.5233,0.6505,0.697,0.7201,0.6199,0.6562,0.6118,0.7712,0.7048,0.6497,0.6294,0.6468,0.6668,0.7598,0.4982,0.6108523607254028,0.7109295129776001,0.0646,0.6503,0.5645,0.6536,0.7293,0.7516
406,0.7025,0.4105,0.7039,0.8073,0.8215,0.6755,0.5743,0.663,0.7173,0.7772,0.6437,0.4964,0.6557,0.6951,0.741,0.637,0.6367,0.6225,0.7767,0.7258,0.6421,0.6499,0.6417,0.6582,0.7514,0.4631,0.6061751246452332,0.7152447700500488,0.0724,0.6602,0.5536,0.6574,0.7309,0.7634
407,0.7311,0.3761,0.7153,0.7771,0.8608,0.6951,0.5588,0.6912,0.7079,0.7991,0.6498,0.5037,0.6549,0.6903,0.7499,0.6485,0.6087,0.6263,0.7655,0.747,0.6175,0.6459,0.6192,0.6401,0.7261,0.4456,0.5949710011482239,0.7228976488113403,0.0799,0.6684,0.5386,0.6614,0.7162,0.7766
408,0.7087,0.3992,0.7084,0.8179,0.8261,0.6732,0.5669,0.6592,0.7167,0.7763,0.6398,0.5093,0.6554,0.7023,0.7304,0.6571,0.6005,0.6329,0.7801,0.7542,0.6364,0.6358,0.6354,0.6585,0.7427,0.4397,0.5892336368560791,0.7254512906074524,0.0874,0.663,0.5423,0.6583,0.7351,0.7659
409,0.7078,0.4017,0.7072,0.8143,0.8251,0.6829,0.5548,0.668,0.7164,0.7845,0.6366,0.4999,0.6592,0.7067,0.7273,0.6498,0.6106,0.6271,0.7695,0.7467,0.6068,0.653,0.6018,0.6301,0.7112,0.4334,0.5824484825134277,0.7312308549880981,0.0948,0.6568,0.544,0.6527,0.7274,0.759
410,0.7562,0.3459,0.736,0.8031,0.8738,0.6841,0.555,0.6698,0.7123,0.786,0.6632,0.4575,0.6602,0.6752,0.7863,0.6706,0.5714,0.6409,0.7568,0.7779,0.6233,0.6297,0.6236,0.6356,0.7398,0.4428,0.5700212121009827,0.7396159172058105,0.1023,0.6795,0.5119,0.6661,0.7166,0.7928
411,0.6778,0.4338,0.698,0.8089,0.7965,0.6342,0.5998,0.6262,0.7027,0.7354,0.5884,0.5646,0.6555,0.7085,0.6704,0.6279,0.6678,0.6169,0.771,0.72,0.579,0.7089,0.5911,0.6311,0.6695,0.4249,0.5577694177627563,0.7452797889709473,0.1095,0.6215,0.595,0.6375,0.7244,0.7184
412,0.729,0.3843,0.7164,0.8182,0.8438,0.6539,0.5696,0.6377,0.694,0.7552,0.6286,0.515,0.6603,0.7095,0.7148,0.6579,0.6023,0.6292,0.7439,0.7634,0.5832,0.6691,0.5778,0.5969,0.6951,0.4336,0.5536938309669495,0.7487830519676208,0.1169,0.6505,0.5481,0.6443,0.7125,0.7545
413,0.7351,0.3754,0.7197,0.8164,0.8503,0.6399,0.6032,0.628,0.6892,0.7466,0.6533,0.4915,0.6673,0.7125,0.7432,0.6595,0.5815,0.6311,0.7365,0.7719,0.5664,0.7209,0.5654,0.5894,0.675,0.4322,0.5383239388465881,0.7575451731681824,0.1242,0.6508,0.5545,0.6423,0.7088,0.7574
414,0.734,0.377,0.7203,0.8266,0.8488,0.6227,0.5996,0.6165,0.6861,0.7302,0.6309,0.5402,0.6639,0.7215,0.7088,0.6592,0.5975,0.6319,0.759,0.7651,0.5881,0.6999,0.5922,0.6243,0.6883,0.4357,0.5357512831687927,0.7591132521629333,0.1316,0.647,0.5628,0.645,0.7235,0.7482
415,0.7405,0.3684,0.7244,0.821,0.8547,0.6216,0.6164,0.6165,0.6826,0.7293,0.6385,0.5222,0.6689,0.7242,0.72,0.6595,0.6091,0.6313,0.7667,0.763,0.5696,0.7295,0.569,0.5967,0.6755,0.4337,0.5246330499649048,0.7664050459861755,0.139,0.6459,0.5691,0.642,0.7182,0.7485
416,0.7135,0.3968,0.7101,0.8193,0.8317,0.6041,0.6426,0.6036,0.6608,0.7151,0.5855,0.5887,0.6607,0.7182,0.6732,0.6584,0.6114,0.6336,0.7784,0.7558,0.5772,0.7647,0.5906,0.6274,0.6683,0.4249,0.5202701687812805,0.7687352299690247,0.1462,0.6277,0.6008,0.6397,0.7208,0.7288
417,0.7485,0.3604,0.729,0.8165,0.8632,0.5774,0.6955,0.5903,0.6508,0.6841,0.6557,0.5031,0.674,0.7291,0.7403,0.6567,0.611,0.6306,0.7674,0.759,0.5565,0.8142,0.5581,0.5828,0.6635,0.4369,0.5146924257278442,0.7729108333587646,0.1536,0.639,0.5968,0.6364,0.7093,0.742
418,0.7723,0.3334,0.7488,0.8241,0.8823,0.6618,0.5854,0.6499,0.6911,0.7665,0.6619,0.4962,0.671,0.7243,0.7502,0.6892,0.5256,0.6606,0.7425,0.806,0.5796,0.7323,0.5851,0.606,0.6847,0.4228,0.5066503882408142,0.7764759063720703,0.1608,0.673,0.5346,0.6631,0.7176,0.7779
419,0.7343,0.3678,0.7207,0.8312,0.8474,0.6139,0.6329,0.609,0.6701,0.7242,0.6463,0.5142,0.6723,0.7329,0.7304,0.6661,0.5948,0.6367,0.7734,0.7635,0.5704,0.7876,0.5712,0.6036,0.672,0.4302,0.5018441081047058,0.7798953652381897,0.1681,0.6462,0.5795,0.642,0.7222,0.7475
420,0.7174,0.3956,0.7125,0.8318,0.8304,0.6028,0.6692,0.6014,0.6797,0.7035,0.6626,0.516,0.6765,0.7305,0.7445,0.6372,0.6395,0.6185,0.7658,0.7383,0.5626,0.8559,0.5678,0.6005,0.6623,0.4235,0.49593016505241394,0.7831711769104004,0.1753,0.6365,0.6152,0.6353,0.7217,0.7358
421,0.758,0.3491,0.7358,0.839,0.8671,0.6033,0.6738,0.6039,0.6746,0.708,0.6781,0.4614,0.6797,0.7276,0.7766,0.6864,0.541,0.6549,0.7566,0.793,0.5789,0.7731,0.5823,0.6123,0.6797,0.4352,0.48726990818977356,0.7862914204597473,0.1827,0.6609,0.5597,0.6513,0.722,0.7649
422,0.7711,0.3262,0.7473,0.83,0.8791,0.6502,0.6036,0.638,0.6927,0.7587,0.6885,0.4394,0.6833,0.7153,0.7994,0.6775,0.5551,0.6499,0.733,0.7879,0.5743,0.7649,0.5777,0.6,0.6857,0.4294,0.48657718300819397,0.7881048917770386,0.19,0.6723,0.5378,0.6592,0.7142,0.7822
423,0.7636,0.3347,0.741,0.8219,0.8758,0.6138,0.6683,0.6103,0.6712,0.7224,0.6638,0.5033,0.6764,0.7338,0.7541,0.6736,0.5791,0.6428,0.7788,0.7734,0.5784,0.789,0.575,0.6034,0.6819,0.4282,0.48126429319381714,0.7900879383087158,0.1973,0.6586,0.5749,0.6491,0.7218,0.7615
424,0.7519,0.3545,0.7326,0.8367,0.8633,0.6044,0.6888,0.6067,0.6758,0.7101,0.6725,0.4843,0.6809,0.7348,0.769,0.6958,0.5414,0.6619,0.7733,0.7929,0.5717,0.8024,0.5726,0.5975,0.6811,0.4225,0.47047948837280273,0.7962026596069336,0.2044,0.6593,0.5743,0.6509,0.7236,0.7633
425,0.7519,0.3541,0.7328,0.8383,0.8627,0.588,0.7434,0.5981,0.6647,0.6914,0.6658,0.4936,0.6794,0.7354,0.7586,0.684,0.5709,0.6508,0.7729,0.781,0.581,0.778,0.5816,0.6115,0.686,0.435,0.46687957644462585,0.797214150428772,0.2118,0.6541,0.588,0.6485,0.7246,0.7559
426,0.7763,0.3236,0.7523,0.8283,0.8846,0.591,0.7676,0.6021,0.676,0.6909,0.6659,0.4915,0.6752,0.7247,0.7618,0.6967,0.5227,0.6647,0.76,0.798,0.5817,0.7617,0.5858,0.6115,0.6881,0.4236,0.46490228176116943,0.7989498376846313,0.219,0.6623,0.5734,0.656,0.7201,0.7647
427,0.7684,0.3267,0.7464,0.8173,0.8809,0.6092,0.6559,0.6029,0.6684,0.7182,0.6849,0.4547,0.684,0.7287,0.7882,0.7,0.5425,0.6709,0.7617,0.7943,0.5651,0.8296,0.567,0.5776,0.6825,0.4375,0.4576038122177124,0.8033129572868347,0.2264,0.6655,0.5619,0.6542,0.7107,0.7728
428,0.7671,0.3369,0.7435,0.8351,0.8762,0.6144,0.6825,0.6124,0.6873,0.7161,0.6798,0.4936,0.6838,0.7357,0.7735,0.6968,0.5557,0.6622,0.7796,0.7923,0.5701,0.8599,0.5715,0.6008,0.6748,0.4267,0.4589705467224121,0.8021597862243652,0.2337,0.6656,0.5857,0.6547,0.7277,0.7666
429,0.7716,0.3261,0.7478,0.8335,0.8795,0.605,0.6822,0.6045,0.6717,0.7131,0.666,0.5281,0.6776,0.7289,0.7569,0.6954,0.5432,0.6651,0.76,0.789,0.571,0.7952,0.5724,0.5903,0.6859,0.4257,0.4530576169490814,0.8040471076965332,0.2409,0.6618,0.575,0.6535,0.7169,0.7649
430,0.7484,0.3583,0.7308,0.8385,0.8591,0.6303,0.6378,0.618,0.6815,0.7349,0.68,0.4769,0.6848,0.7363,0.7779,0.6678,0.6095,0.6367,0.7664,0.763,0.5684,0.8855,0.571,0.5899,0.6755,0.4363,0.4508099853992462,0.8065468668937683,0.2483,0.659,0.5936,0.6483,0.7225,0.7621
431,0.7647,0.3373,0.7417,0.8363,0.8738,0.6391,0.6456,0.6255,0.691,0.7408,0.6827,0.4807,0.6858,0.7368,0.7817,0.6935,0.5512,0.6597,0.7702,0.7907,0.5798,0.763,0.5771,0.6065,0.6847,0.4298,0.44592663645744324,0.8083523511886597,0.2556,0.672,0.5556,0.658,0.7282,0.7743
432,0.7603,0.344,0.7389,0.8422,0.8689,0.6382,0.6096,0.6255,0.6844,0.746,0.6916,0.4464,0.6878,0.7222,0.8026,0.6845,0.5829,0.6508,0.7764,0.7776,0.5714,0.8963,0.5758,0.5868,0.6786,0.4308,0.4427569508552551,0.8098446130752563,0.2629,0.6692,0.5758,0.6558,0.7224,0.7747
433,0.7528,0.3515,0.734,0.8426,0.8624,0.5926,0.7236,0.6023,0.6797,0.6948,0.6865,0.4855,0.6876,0.7365,0.7844,0.6833,0.5763,0.6497,0.7791,0.7766,0.5752,0.8372,0.5783,0.6111,0.6771,0.4309,0.4418961703777313,0.8113329410552979,0.2703,0.6581,0.5948,0.6504,0.7298,0.7591
434,0.7722,0.3261,0.7477,0.8396,0.8792,0.631,0.6357,0.6169,0.6894,0.729,0.6907,0.4575,0.6876,0.7281,0.7974,0.7027,0.5456,0.6693,0.774,0.7933,0.5782,0.8361,0.5789,0.5914,0.6839,0.427,0.43729865550994873,0.811779797077179,0.2775,0.675,0.5602,0.6601,0.7245,0.7766
435,0.7505,0.3556,0.7316,0.8394,0.8616,0.6136,0.6627,0.6076,0.6756,0.7205,0.6543,0.5548,0.6779,0.738,0.7418,0.6967,0.5642,0.6628,0.7771,0.7862,0.5799,0.7909,0.5826,0.608,0.6879,0.4494,0.43092775344848633,0.8174356818199158,0.2852,0.659,0.5856,0.6525,0.7276,0.7596
436,0.76,0.3485,0.7379,0.8421,0.8694,0.597,0.6788,0.5949,0.6603,0.7059,0.6829,0.4924,0.6849,0.7368,0.7795,0.6911,0.5472,0.6574,0.7695,0.7903,0.5707,0.8445,0.5732,0.6017,0.6772,0.4352,0.4279986321926117,0.8175174593925476,0.2925,0.6603,0.5823,0.6497,0.7221,0.7645
437,0.7648,0.3348,0.7418,0.8349,0.8742,0.6012,0.7098,0.6005,0.6662,0.7079,0.6951,0.445,0.6914,0.7348,0.8053,0.6846,0.5821,0.6521,0.7622,0.7822,0.5689,0.8641,0.5692,0.5895,0.6779,0.4316,0.4265616238117218,0.8175234794616699,0.2998,0.6629,0.5872,0.651,0.7175,0.7695
438,0.724,0.3974,0.7169,0.8351,0.8378,0.5729,0.7778,0.5821,0.6547,0.6753,0.6143,0.6323,0.6738,0.7319,0.7113,0.6554,0.6362,0.629,0.7764,0.7518,0.5736,0.897,0.5843,0.6256,0.6682,0.4317,0.419219970703125,0.8207354545593262,0.3072,0.628,0.6681,0.6372,0.7247,0.7289
439,0.7658,0.3354,0.7424,0.8465,0.8725,0.6396,0.602,0.6244,0.6787,0.7383,0.671,0.5361,0.6827,0.7424,0.7656,0.7032,0.5412,0.6708,0.7716,0.7929,0.5877,0.7347,0.586,0.6076,0.6968,0.4357,0.41977459192276,0.8213120102882385,0.3146,0.6735,0.5499,0.6613,0.7294,0.7732
440,0.78,0.3163,0.7585,0.8185,0.8907,0.5982,0.6811,0.5971,0.6639,0.7063,0.6968,0.4707,0.6903,0.7248,0.8018,0.7039,0.5383,0.6718,0.767,0.7987,0.5954,0.7412,0.5982,0.6249,0.7059,0.4367,0.4198163151741028,0.8214696049690247,0.322,0.6749,0.5495,0.6632,0.7198,0.7807
441,0.7459,0.3639,0.7303,0.8464,0.856,0.61,0.6787,0.6033,0.6801,0.7107,0.6816,0.5132,0.6882,0.7454,0.779,0.6813,0.5943,0.6475,0.7842,0.7725,0.5908,0.8094,0.5906,0.6169,0.6914,0.4305,0.41111689805984497,0.8253040313720703,0.3293,0.6619,0.5919,0.652,0.7346,0.7619
442,0.7672,0.3363,0.7435,0.8359,0.8767,0.6168,0.6425,0.6059,0.669,0.7212,0.6835,0.5239,0.6867,0.7422,0.7817,0.6842,0.5846,0.6531,0.7578,0.7774,0.5835,0.7825,0.5841,0.5978,0.6943,0.4297,0.415053129196167,0.8232710957527161,0.3366,0.667,0.574,0.6547,0.7205,0.7703
443,0.7855,0.3019,0.7645,0.8209,0.894,0.6158,0.6322,0.6042,0.6638,0.7202,0.6939,0.4875,0.6892,0.7305,0.7988,0.7115,0.5331,0.6835,0.7628,0.8034,0.5954,0.7109,0.591,0.6138,0.7084,0.4283,0.41211405396461487,0.8252701163291931,0.3439,0.6804,0.5331,0.6665,0.7184,0.785
444,0.776,0.3244,0.751,0.8383,0.8824,0.5524,0.7999,0.5707,0.6372,0.6581,0.6902,0.4879,0.6887,0.7397,0.7909,0.6959,0.5593,0.6626,0.7692,0.7902,0.5865,0.7823,0.5871,0.5982,0.6934,0.4316,0.4060359597206116,0.8278496861457825,0.3512,0.6602,0.5908,0.652,0.7165,0.763
445,0.7778,0.3254,0.7527,0.8394,0.8844,0.601,0.6741,0.5942,0.6606,0.7058,0.692,0.4691,0.6871,0.721,0.8053,0.7056,0.5416,0.6724,0.7735,0.7957,0.5953,0.7567,0.5917,0.6176,0.7036,0.4387,0.4044133126735687,0.8282167911529541,0.3587,0.6743,0.5534,0.6596,0.7224,0.779
446,0.777,0.3223,0.7526,0.8343,0.8843,0.6218,0.6277,0.6104,0.673,0.7259,0.6957,0.4731,0.6912,0.7277,0.8043,0.7102,0.5396,0.6799,0.7714,0.7993,0.5765,0.8235,0.5793,0.5855,0.6924,0.4286,0.3990938663482666,0.8334537148475647,0.3659,0.6762,0.5572,0.6627,0.7184,0.7812
447,0.7377,0.3834,0.7253,0.8437,0.849,0.5606,0.7582,0.5784,0.6534,0.6641,0.6895,0.5159,0.6913,0.747,0.781,0.6892,0.5917,0.6554,0.7802,0.7756,0.5665,0.9394,0.5768,0.5964,0.6719,0.4264,0.40251004695892334,0.8302796483039856,0.3732,0.6487,0.6377,0.6454,0.7241,0.7483
448,0.7539,0.3586,0.7347,0.8493,0.8625,0.626,0.6069,0.6149,0.6756,0.7247,0.6919,0.4924,0.6893,0.7405,0.7944,0.6804,0.5713,0.6468,0.7786,0.7757,0.5784,0.8702,0.5814,0.6151,0.6764,0.436,0.39673471450805664,0.8316940665245056,0.3805,0.6661,0.5799,0.6534,0.7318,0.7667
449,0.7752,0.3261,0.7508,0.8386,0.8827,0.6145,0.6502,0.6051,0.6739,0.7174,0.6862,0.489,0.6876,0.739,0.7874,0.7094,0.5303,0.6781,0.7708,0.8006,0.5828,0.7967,0.5817,0.6056,0.69,0.4305,0.39805537462234497,0.8326177597045898,0.3879,0.6736,0.5585,0.6607,0.7256,0.7756
450,0.769,0.3407,0.7448,0.8447,0.8763,0.5849,0.7111,0.5884,0.6558,0.6921,0.6964,0.4885,0.6912,0.7403,0.8,0.7023,0.5452,0.6677,0.7772,0.7979,0.5866,0.7856,0.5859,0.6157,0.6922,0.4321,0.39334648847579956,0.8343255519866943,0.3952,0.6678,0.5742,0.6556,0.7267,0.7717
451,0.7754,0.3269,0.7506,0.8426,0.8819,0.5808,0.7479,0.5845,0.6463,0.6907,0.6883,0.5114,0.6872,0.7312,0.7895,0.7064,0.5431,0.675,0.7709,0.796,0.5899,0.8266,0.5905,0.6168,0.6973,0.442,0.3935566544532776,0.8345769047737122,0.4027,0.6682,0.5912,0.6576,0.7216,0.7711
452,0.7623,0.3528,0.7403,0.8493,0.8694,0.5747,0.7282,0.5875,0.6592,0.6795,0.6907,0.4949,0.6889,0.7342,0.7957,0.7048,0.5783,0.6738,0.7785,0.788,0.5962,0.8242,0.6039,0.6074,0.6975,0.4292,0.3895753026008606,0.8367594480514526,0.41,0.6657,0.5957,0.6589,0.7257,0.766
453,0.7812,0.3204,0.7563,0.837,0.8874,0.5949,0.6928,0.5925,0.6625,0.6966,0.6665,0.5381,0.6793,0.7369,0.7608,0.7115,0.5299,0.6775,0.7795,0.8043,0.6007,0.7222,0.5973,0.6316,0.7042,0.4308,0.3861795961856842,0.8378646969795227,0.4173,0.671,0.5607,0.6606,0.7295,0.7707
