epoch,Alessandro-cleaned-data_val_dice,Alessandro-cleaned-data_val_loss,Alessandro-cleaned-data_val_precision,Alessandro-cleaned-data_val_recall,Alessandro-cleaned-data_val_sparse_categorical_accuracy,Antoine-cleaned-data_val_dice,Antoine-cleaned-data_val_loss,Antoine-cleaned-data_val_precision,Antoine-cleaned-data_val_recall,Antoine-cleaned-data_val_sparse_categorical_accuracy,Kornum-cleaned-data_v2_val_dice,Kornum-cleaned-data_v2_val_loss,Kornum-cleaned-data_v2_val_precision,Kornum-cleaned-data_v2_val_recall,Kornum-cleaned-data_v2_val_sparse_categorical_accuracy,Maiken-cleaned-data_val_dice,Maiken-cleaned-data_val_loss,Maiken-cleaned-data_val_precision,Maiken-cleaned-data_val_recall,Maiken-cleaned-data_val_sparse_categorical_accuracy,Sebastian-cleaned-data_val_dice,Sebastian-cleaned-data_val_loss,Sebastian-cleaned-data_val_precision,Sebastian-cleaned-data_val_recall,Sebastian-cleaned-data_val_sparse_categorical_accuracy,epoch_minutes,loss,sparse_categorical_accuracy,train_hours,val_dice,val_loss,val_precision,val_recall,val_sparse_categorical_accuracy
0,0.2051,1.0799,0.4624,0.3378,0.3856,0.2901,1.0701,0.49,0.3438,0.418,0.2345,1.0727,0.2625,0.3358,0.4271,0.3323,1.0484,0.4315,0.3422,0.5283,0.2423,1.0638,0.4548,0.3284,0.4341,1.2325,1.0964845418930054,0.3561351001262665,0.0206,0.2609,1.067,0.4202,0.3376,0.4386
1,0.4272,1.0041,0.5049,0.4774,0.6314,0.4571,1.005,0.5162,0.4572,0.596,0.3329,1.0224,0.4511,0.3811,0.54,0.4347,1.0408,0.4546,0.4251,0.5861,0.376,1.0119,0.4939,0.4074,0.5535,0.4054,1.067106008529663,0.4208335876464844,0.0274,0.4056,1.0168,0.4841,0.4296,0.5814
2,0.5912,0.9002,0.5988,0.6148,0.8713,0.5206,0.9201,0.5283,0.5179,0.6968,0.4973,0.9477,0.5607,0.5147,0.7303,0.4516,1.0239,0.4542,0.4719,0.6057,0.4757,0.9449,0.5157,0.4866,0.6691,0.4012,1.0235064029693604,0.5266035795211792,0.0341,0.5073,0.9474,0.5315,0.5212,0.7146
3,0.6108,0.7951,0.6201,0.6313,0.9013,0.5345,0.8449,0.5343,0.5354,0.7335,0.5427,0.8629,0.5772,0.5625,0.7922,0.4401,0.9853,0.4468,0.4706,0.6061,0.5104,0.8782,0.5296,0.5229,0.7246,0.4058,0.9666942954063416,0.5736182332038879,0.041,0.5277,0.8733,0.5416,0.5445,0.7515
4,0.6164,0.6908,0.602,0.6361,0.9105,0.5369,0.7901,0.536,0.543,0.7548,0.5591,0.7827,0.5431,0.5788,0.8072,0.4268,0.9575,0.4321,0.4624,0.6023,0.5277,0.8154,0.5417,0.5437,0.757,0.413,0.9183734655380248,0.5853908658027649,0.0479,0.5334,0.8073,0.531,0.5528,0.7664
5,0.619,0.6114,0.6044,0.6387,0.9143,0.5373,0.7558,0.5377,0.5473,0.7654,0.564,0.7276,0.5481,0.584,0.8105,0.4242,0.9375,0.4232,0.4632,0.6133,0.5307,0.7757,0.5406,0.5491,0.7663,0.3943,0.8787131309509277,0.592401385307312,0.0546,0.535,0.7616,0.5308,0.5565,0.774
6,0.6204,0.5523,0.6058,0.6401,0.9164,0.5363,0.7367,0.5373,0.5486,0.7695,0.5685,0.689,0.5524,0.5886,0.8156,0.4235,0.928,0.4176,0.4631,0.6205,0.535,0.7482,0.5442,0.554,0.7734,0.3883,0.8537881970405579,0.5928821563720703,0.0612,0.5367,0.7308,0.5315,0.5589,0.7791
7,0.621,0.5156,0.6063,0.6406,0.9172,0.5363,0.7248,0.5484,0.5508,0.7741,0.5714,0.6647,0.5554,0.5917,0.8187,0.432,0.9114,0.415,0.4695,0.6402,0.5373,0.7323,0.5673,0.5568,0.7774,0.3914,0.8402043581008911,0.5934926271438599,0.0678,0.5396,0.7098,0.5385,0.5619,0.7855
8,0.6216,0.495,0.6069,0.6412,0.918,0.5359,0.7198,0.5535,0.551,0.7749,0.5741,0.6511,0.5586,0.5948,0.823,0.4367,0.9068,0.4262,0.4741,0.6485,0.5358,0.7312,0.5853,0.5553,0.7753,0.3907,0.8332586884498596,0.5937101244926453,0.0744,0.5408,0.7008,0.5461,0.5633,0.7879
9,0.6222,0.4774,0.6075,0.6418,0.919,0.5359,0.7142,0.5453,0.5516,0.7762,0.5767,0.6384,0.5612,0.5975,0.8266,0.4404,0.8991,0.4204,0.4771,0.6562,0.5341,0.7292,0.5288,0.5537,0.7731,0.392,0.8300988078117371,0.5956153273582458,0.0811,0.5419,0.6917,0.5326,0.5643,0.7902
10,0.6223,0.4677,0.6075,0.6419,0.9191,0.5365,0.7089,0.5888,0.5525,0.7776,0.5773,0.6303,0.5622,0.5983,0.8279,0.4445,0.8931,0.4237,0.4807,0.6628,0.53,0.7314,0.5249,0.5495,0.7673,0.3903,0.8240324258804321,0.5983285903930664,0.0877,0.5421,0.6863,0.5414,0.5646,0.7909
11,0.6234,0.4561,0.6086,0.6428,0.9208,0.5375,0.7048,0.6898,0.5535,0.779,0.5798,0.6211,0.5641,0.6007,0.8309,0.4501,0.8868,0.4282,0.4852,0.6713,0.5305,0.7288,0.5245,0.55,0.768,0.3904,0.8235327005386353,0.5989809632301331,0.0944,0.5443,0.6795,0.563,0.5664,0.794
12,0.6231,0.4526,0.6083,0.6426,0.9203,0.5383,0.7007,0.5246,0.5545,0.7807,0.58,0.6171,0.5647,0.6011,0.8325,0.4561,0.8756,0.4332,0.4884,0.681,0.527,0.7325,0.5227,0.5466,0.7631,0.3905,0.8190103769302368,0.601682186126709,0.101,0.5449,0.6757,0.5307,0.5666,0.7955
13,0.6243,0.4432,0.6094,0.6435,0.9221,0.5392,0.6956,0.5249,0.5554,0.782,0.581,0.6111,0.5653,0.602,0.8336,0.457,0.8749,0.4341,0.4897,0.6816,0.5268,0.7315,0.521,0.5463,0.7628,0.3867,0.8123123645782471,0.6046807169914246,0.1076,0.5457,0.6713,0.5309,0.5674,0.7964
14,0.6244,0.4409,0.6095,0.6436,0.9223,0.5406,0.6925,0.5264,0.5569,0.7841,0.5814,0.6092,0.5657,0.6024,0.8347,0.4617,0.8696,0.4383,0.4933,0.6885,0.525,0.7342,0.5195,0.5445,0.7602,0.3927,0.8147915005683899,0.6008582711219788,0.1142,0.5466,0.6693,0.5319,0.5681,0.798
15,0.6245,0.4389,0.6096,0.6437,0.9224,0.5419,0.6881,0.5275,0.5583,0.786,0.5816,0.6078,0.566,0.6027,0.8355,0.465,0.8642,0.4414,0.4955,0.6942,0.5223,0.7389,0.517,0.5416,0.7562,0.3899,0.8128365278244019,0.6019355654716492,0.1208,0.5471,0.6676,0.5323,0.5684,0.7989
16,0.6243,0.4384,0.6094,0.6436,0.9221,0.5425,0.6822,0.5274,0.5589,0.7869,0.5812,0.6088,0.5662,0.6025,0.8354,0.467,0.8588,0.4434,0.4972,0.6982,0.5193,0.7447,0.5141,0.5386,0.752,0.3908,0.8142778873443604,0.6011555194854736,0.1275,0.5469,0.6666,0.5321,0.5682,0.7989
17,0.6248,0.4366,0.6099,0.6439,0.9229,0.5434,0.6806,0.5283,0.5598,0.7882,0.5817,0.6074,0.5664,0.603,0.836,0.4715,0.855,0.4481,0.4994,0.7048,0.5204,0.743,0.5148,0.5398,0.7536,0.3892,0.8102507591247559,0.6006407737731934,0.1341,0.5484,0.6645,0.5335,0.5692,0.8011
18,0.6252,0.4343,0.6102,0.6442,0.9235,0.5442,0.6795,0.5294,0.5606,0.7893,0.5825,0.6051,0.5669,0.6037,0.8366,0.4755,0.8523,0.4526,0.5015,0.7116,0.5212,0.7405,0.5154,0.5406,0.7548,0.386,0.8089394569396973,0.6001579761505127,0.1407,0.5497,0.6623,0.5349,0.5701,0.8032
19,0.6249,0.4347,0.6099,0.644,0.923,0.5448,0.6782,0.5303,0.5612,0.7901,0.5824,0.6051,0.5672,0.6037,0.8368,0.4782,0.8484,0.4556,0.5035,0.7158,0.5201,0.7437,0.5157,0.5395,0.7532,0.3892,0.8071930408477783,0.6020851731300354,0.1473,0.5501,0.662,0.5357,0.5704,0.8038
20,0.6252,0.4303,0.6103,0.6442,0.9235,0.5448,0.6722,0.5298,0.5613,0.7903,0.583,0.6007,0.5676,0.6042,0.8379,0.4777,0.8448,0.4549,0.5037,0.7153,0.5177,0.7453,0.5126,0.5371,0.7498,0.39,0.8047035336494446,0.6043535470962524,0.1539,0.5497,0.6587,0.535,0.5701,0.8034
21,0.626,0.4273,0.611,0.6447,0.9247,0.5455,0.6701,0.5302,0.5621,0.7913,0.5839,0.598,0.568,0.605,0.8387,0.479,0.8444,0.4562,0.5049,0.7173,0.5187,0.7428,0.5122,0.538,0.7512,0.3906,0.807120680809021,0.6013091206550598,0.1606,0.5506,0.6565,0.5355,0.5709,0.8046
22,0.6258,0.4319,0.6421,0.6441,0.9229,0.5457,0.669,0.5307,0.5623,0.7917,0.5834,0.6025,0.6473,0.6045,0.8382,0.4833,0.8381,0.4614,0.5074,0.7246,0.5162,0.7491,0.5127,0.5357,0.7477,0.3919,0.8042152523994446,0.602001428604126,0.1672,0.5509,0.6581,0.5588,0.5708,0.805
23,0.6312,0.4287,0.6501,0.6453,0.921,0.5457,0.6671,0.5304,0.5622,0.7916,0.5886,0.5991,0.6514,0.6067,0.8381,0.4839,0.8373,0.4621,0.5079,0.7252,0.5166,0.7476,0.5124,0.536,0.7482,0.3896,0.8030093312263489,0.6025041341781616,0.1738,0.5532,0.656,0.5613,0.5716,0.8048
24,0.6269,0.4217,0.6486,0.6448,0.9244,0.5458,0.6661,0.5311,0.5623,0.7917,0.585,0.5928,0.6312,0.6058,0.839,0.4835,0.8373,0.462,0.5071,0.7248,0.5201,0.7378,0.5149,0.5395,0.7532,0.3909,0.8019667863845825,0.6068512797355652,0.1805,0.5523,0.6511,0.5576,0.5719,0.8066
25,0.6294,0.422,0.6485,0.6451,0.9228,0.5455,0.6611,0.53,0.5621,0.7914,0.5875,0.593,0.6517,0.6068,0.8394,0.4844,0.8327,0.4625,0.5086,0.7259,0.5152,0.7461,0.5109,0.5346,0.7463,0.3874,0.7982206344604492,0.6063226461410522,0.1871,0.5524,0.651,0.5607,0.5714,0.8052
26,0.6371,0.42,0.6517,0.6468,0.9192,0.5456,0.6595,0.53,0.5622,0.7915,0.5948,0.5915,0.6627,0.6096,0.8388,0.4842,0.8315,0.4622,0.5084,0.7256,0.5169,0.7427,0.512,0.5362,0.7486,0.3878,0.8007285594940186,0.6059176325798035,0.1937,0.5557,0.649,0.5637,0.5726,0.8047
27,0.641,0.4227,0.6523,0.6479,0.9155,0.5458,0.6592,0.8634,0.5623,0.7914,0.5991,0.5941,0.654,0.6111,0.8377,0.4863,0.8278,0.465,0.5098,0.73,0.5147,0.7487,0.5397,0.534,0.7452,0.3898,0.8016415238380432,0.6058777570724487,0.2003,0.5574,0.6505,0.6349,0.573,0.804
28,0.6435,0.4191,0.6539,0.6491,0.9149,0.5458,0.6572,0.8633,0.5623,0.7914,0.6013,0.5907,0.6547,0.6123,0.838,0.4862,0.8271,0.4646,0.51,0.7296,0.5152,0.746,0.5329,0.5345,0.7459,0.3912,0.7985499501228333,0.6085290908813477,0.2069,0.5584,0.648,0.6339,0.5736,0.804
29,0.6474,0.4181,0.6536,0.6506,0.9108,0.5468,0.6571,0.6966,0.5625,0.7909,0.6045,0.5889,0.6435,0.6133,0.8372,0.4862,0.8264,0.4651,0.5094,0.7299,0.516,0.745,0.5354,0.535,0.7466,0.3925,0.8015424609184265,0.6064503192901611,0.2136,0.5602,0.6471,0.5988,0.5742,0.8031
30,0.652,0.4191,0.6541,0.6535,0.9045,0.5479,0.6559,0.6239,0.5628,0.7906,0.6105,0.5893,0.6387,0.6154,0.8353,0.4874,0.8239,0.4664,0.5105,0.7315,0.5152,0.7473,0.534,0.534,0.745,0.3852,0.8014821410179138,0.6078448295593262,0.2201,0.5626,0.6471,0.5834,0.5752,0.8014
31,0.6522,0.4198,0.6536,0.6538,0.9029,0.5479,0.6544,0.6172,0.5629,0.7907,0.612,0.5912,0.6381,0.6162,0.8343,0.4882,0.8212,0.4672,0.5112,0.7331,0.5141,0.7507,0.5378,0.5328,0.7431,0.3884,0.7998378872871399,0.6083076596260071,0.2268,0.5629,0.6475,0.5828,0.5754,0.8008
32,0.6577,0.4184,0.6549,0.6624,0.8876,0.551,0.6581,0.5818,0.563,0.788,0.6196,0.5899,0.6285,0.6196,0.8273,0.4872,0.8267,0.4656,0.511,0.7303,0.518,0.75,0.5468,0.5345,0.7438,0.3911,0.7971922159194946,0.6062527894973755,0.2334,0.5667,0.6486,0.5755,0.5781,0.7954
33,0.6574,0.414,0.6559,0.6593,0.8966,0.5496,0.6529,0.6,0.5631,0.7894,0.6174,0.5856,0.6328,0.6187,0.8323,0.4871,0.8227,0.4651,0.5115,0.73,0.5159,0.7494,0.5454,0.5334,0.743,0.3877,0.7971233129501343,0.6080383658409119,0.24,0.5655,0.6449,0.5798,0.5772,0.7983
34,0.6591,0.4156,0.6561,0.6658,0.884,0.5523,0.6554,0.5827,0.5631,0.7868,0.6216,0.586,0.6277,0.6211,0.8261,0.4883,0.8238,0.7995,0.5119,0.7313,0.5184,0.7504,0.5482,0.5339,0.7419,0.3889,0.7960081696510315,0.6083994507789612,0.2466,0.5679,0.6462,0.6428,0.5792,0.794
35,0.6598,0.4153,0.6568,0.6692,0.8796,0.5542,0.6543,0.5866,0.5638,0.786,0.6231,0.586,0.6269,0.6226,0.8233,0.4888,0.8225,0.7999,0.5126,0.732,0.5194,0.7511,0.5498,0.5339,0.741,0.3899,0.7948053479194641,0.6081819534301758,0.2532,0.5691,0.6458,0.644,0.5804,0.7924
36,0.6598,0.4133,0.6568,0.669,0.88,0.5534,0.651,0.5847,0.5635,0.7862,0.6237,0.5846,0.6273,0.6233,0.8226,0.4882,0.8205,0.7989,0.5124,0.7305,0.5191,0.7508,0.5501,0.5337,0.7407,0.3891,0.7923795580863953,0.6106258630752563,0.2598,0.5688,0.644,0.6436,0.5804,0.792
37,0.6603,0.4112,0.6574,0.6702,0.8793,0.5543,0.6503,0.5855,0.5639,0.7861,0.6246,0.5808,0.6277,0.6241,0.8234,0.4886,0.8202,0.7995,0.5124,0.7313,0.519,0.7509,0.5475,0.5333,0.7401,0.3945,0.7944555878639221,0.6101729869842529,0.2665,0.5694,0.6427,0.6435,0.5808,0.792
38,0.6587,0.4133,0.6571,0.6752,0.8694,0.5553,0.6504,0.5809,0.5637,0.7843,0.6261,0.583,0.6263,0.627,0.8164,0.4906,0.8202,0.6329,0.5135,0.7317,0.5196,0.7571,0.5476,0.5317,0.7355,0.3909,0.7883406281471252,0.6110129356384277,0.2731,0.5701,0.6448,0.609,0.5822,0.7875
39,0.6587,0.4132,0.657,0.6752,0.8692,0.5559,0.6506,0.5786,0.5638,0.7838,0.6268,0.5811,0.6271,0.6276,0.8177,0.4914,0.8186,0.6211,0.5132,0.7323,0.5195,0.7575,0.5478,0.5313,0.7344,0.3921,0.7946048974990845,0.6076672673225403,0.2798,0.5705,0.6442,0.6063,0.5822,0.7875
40,0.6606,0.4072,0.6577,0.6709,0.879,0.5531,0.6458,0.5836,0.5631,0.7855,0.6264,0.5756,0.6293,0.6259,0.8239,0.4889,0.8149,0.6881,0.5127,0.731,0.5174,0.7536,0.5472,0.5312,0.7366,0.3839,0.7881757020950317,0.6145341396331787,0.2863,0.5693,0.6394,0.6212,0.5808,0.7912
41,0.6614,0.4067,0.6589,0.6751,0.875,0.5548,0.6467,0.5769,0.5632,0.7838,0.6263,0.5754,0.6276,0.6264,0.8209,0.4906,0.8152,0.6476,0.5133,0.7306,0.5199,0.7517,0.5495,0.5322,0.7363,0.3908,0.7918130159378052,0.6100254058837891,0.293,0.5706,0.6391,0.6121,0.582,0.7893
42,0.6598,0.4079,0.6583,0.6775,0.869,0.5564,0.6462,0.5776,0.5637,0.7825,0.6275,0.5755,0.6274,0.6286,0.8171,0.4926,0.8153,0.6074,0.5144,0.732,0.5206,0.7522,0.5478,0.5318,0.7347,0.3907,0.7928094267845154,0.6087146401405334,0.2996,0.5714,0.6394,0.6037,0.5832,0.7871
43,0.6582,0.4098,0.6584,0.6821,0.8613,0.5582,0.6474,0.5765,0.5639,0.7802,0.6271,0.5767,0.626,0.6307,0.8099,0.4943,0.8156,0.5675,0.5145,0.7317,0.5233,0.7551,0.5504,0.5322,0.7319,0.3879,0.7907485365867615,0.6102408170700073,0.3062,0.5722,0.6409,0.5958,0.5847,0.783
44,0.6606,0.4043,0.6589,0.6772,0.871,0.5553,0.6447,0.5756,0.5629,0.7821,0.6281,0.5716,0.6283,0.6289,0.8183,0.4918,0.8147,0.5992,0.5142,0.73,0.5209,0.7499,0.5482,0.5322,0.7355,0.3893,0.7895983457565308,0.6116971969604492,0.3128,0.5713,0.637,0.602,0.5831,0.7874
45,0.6599,0.4043,0.6589,0.6789,0.8678,0.5577,0.645,0.578,0.5639,0.7812,0.6283,0.57,0.6278,0.6298,0.8163,0.4927,0.8152,0.5671,0.5142,0.7295,0.5223,0.7513,0.5494,0.5325,0.7344,0.3953,0.78922039270401,0.6115675568580627,0.3195,0.5722,0.6372,0.5962,0.5839,0.7858
46,0.6587,0.4072,0.6587,0.6825,0.862,0.5577,0.6442,0.5763,0.5638,0.7808,0.6272,0.5736,0.6262,0.6306,0.811,0.4955,0.813,0.5811,0.5159,0.7317,0.5217,0.7587,0.5502,0.5303,0.7286,0.392,0.7874951362609863,0.6119665503501892,0.3262,0.5722,0.6393,0.5985,0.5846,0.7828
47,0.6588,0.4036,0.6594,0.6835,0.8615,0.5587,0.6442,0.5754,0.5639,0.7792,0.6278,0.5691,0.6266,0.6314,0.8104,0.4978,0.815,0.5878,0.5172,0.7295,0.524,0.7545,0.5503,0.5319,0.7302,0.3878,0.7861043810844421,0.6134687662124634,0.3327,0.5734,0.6373,0.5999,0.5856,0.7822
48,0.6537,0.4092,0.6574,0.6857,0.8508,0.5597,0.6455,0.5728,0.5639,0.7772,0.627,0.5748,0.6258,0.6351,0.8021,0.5045,0.8148,0.5884,0.5201,0.7315,0.5256,0.7642,0.5526,0.5308,0.7234,0.3898,0.7880101799964905,0.6085829734802246,0.3394,0.5741,0.6417,0.5994,0.5871,0.777
49,0.6543,0.4077,0.6576,0.685,0.8525,0.5589,0.6439,0.5735,0.5637,0.778,0.6277,0.573,0.6265,0.6353,0.8035,0.5037,0.8131,0.5961,0.52,0.7316,0.5253,0.7631,0.5526,0.5308,0.7241,0.3948,0.7884833812713623,0.6077530384063721,0.3461,0.574,0.6402,0.6013,0.587,0.7779
50,0.6549,0.4045,0.6585,0.6861,0.8529,0.561,0.6453,0.573,0.5643,0.7756,0.6278,0.5688,0.6265,0.635,0.8035,0.5054,0.8152,0.5866,0.5207,0.7309,0.5295,0.7571,0.5561,0.5342,0.7271,0.3846,0.7879469990730286,0.6088303327560425,0.3526,0.5757,0.6382,0.6001,0.5881,0.778
51,0.6525,0.4093,0.6572,0.6873,0.8476,0.5617,0.6458,0.5724,0.5644,0.7744,0.6254,0.5738,0.6248,0.6349,0.7984,0.51,0.8124,0.5862,0.5224,0.7327,0.5299,0.7635,0.5587,0.5337,0.7237,0.3915,0.7872435450553894,0.6092832088470459,0.3592,0.5759,0.641,0.5999,0.5885,0.7754
52,0.6544,0.4044,0.6583,0.6868,0.8513,0.5622,0.644,0.5742,0.565,0.7751,0.6277,0.5685,0.6266,0.636,0.8022,0.5082,0.8129,0.5909,0.5224,0.731,0.53,0.7579,0.5575,0.5342,0.7259,0.3942,0.7873049378395081,0.6118248701095581,0.3659,0.5765,0.6375,0.6015,0.5889,0.7771
53,0.6564,0.4016,0.6594,0.6871,0.8545,0.5624,0.6432,0.5744,0.5652,0.7756,0.6293,0.5641,0.6279,0.6361,0.8057,0.508,0.8133,0.5915,0.5222,0.7318,0.5309,0.7549,0.5583,0.5351,0.7275,0.388,0.7840287685394287,0.6126867532730103,0.3725,0.5774,0.6354,0.6023,0.5891,0.779
54,0.6541,0.405,0.6582,0.6876,0.8502,0.5607,0.6425,0.572,0.564,0.775,0.6271,0.5679,0.6262,0.6358,0.8008,0.5122,0.8109,0.5979,0.5247,0.7331,0.5303,0.7611,0.5591,0.5339,0.7238,0.3888,0.7884766459465027,0.6089580655097961,0.3791,0.5769,0.6375,0.6027,0.5892,0.7766
55,0.6557,0.4023,0.6591,0.6875,0.853,0.5626,0.643,0.5729,0.5651,0.7747,0.6297,0.5633,0.6283,0.6372,0.8046,0.5122,0.8119,0.5911,0.5242,0.7321,0.531,0.7575,0.5588,0.5346,0.7247,0.3887,0.7876657247543335,0.6107355952262878,0.3857,0.5782,0.6356,0.602,0.5897,0.7778
56,0.6572,0.4007,0.6596,0.6872,0.8557,0.5624,0.6408,0.5738,0.5652,0.7758,0.63,0.5611,0.6287,0.6365,0.8068,0.5111,0.8094,0.5978,0.5235,0.7332,0.5306,0.7557,0.5593,0.5346,0.7258,0.3877,0.7857704162597656,0.6126947402954102,0.3923,0.5783,0.6335,0.6038,0.5894,0.7795
57,0.6538,0.4022,0.6587,0.689,0.8489,0.5654,0.6428,0.5746,0.5668,0.7737,0.6279,0.5617,0.6271,0.6372,0.8003,0.5182,0.811,0.5915,0.5268,0.7333,0.5331,0.7573,0.559,0.5354,0.7228,0.3944,0.7814754843711853,0.6120383739471436,0.399,0.5797,0.635,0.6022,0.591,0.7758
58,0.6563,0.3979,0.6597,0.6882,0.8537,0.5635,0.6406,0.5743,0.5657,0.7744,0.6307,0.5573,0.6293,0.6382,0.8054,0.5139,0.8107,0.5902,0.5254,0.7328,0.5329,0.7564,0.5607,0.5356,0.7241,0.3862,0.7787746787071228,0.6151486039161682,0.4055,0.5795,0.6326,0.6028,0.5906,0.7781
59,0.654,0.4,0.6588,0.6891,0.8491,0.5661,0.6424,0.575,0.5673,0.7734,0.6284,0.5588,0.6276,0.6375,0.8009,0.52,0.8112,0.5913,0.5278,0.7327,0.5338,0.7581,0.5605,0.5358,0.7222,0.3897,0.7808540463447571,0.6126847267150879,0.4122,0.5805,0.6341,0.6026,0.5915,0.7757
60,0.6552,0.3974,0.6593,0.688,0.852,0.5635,0.6395,0.5743,0.5657,0.774,0.6302,0.5559,0.6291,0.6385,0.804,0.5171,0.8102,0.5951,0.5277,0.7326,0.5333,0.7573,0.5608,0.5356,0.7228,0.3878,0.7810153365135193,0.6147854924201965,0.4188,0.5799,0.6321,0.6037,0.5911,0.7771
61,0.6555,0.3987,0.6589,0.6877,0.8525,0.5645,0.6383,0.576,0.5666,0.7751,0.6307,0.5567,0.6296,0.639,0.8046,0.5177,0.8062,0.5962,0.5276,0.7352,0.5317,0.7598,0.5617,0.5344,0.7216,0.3932,0.7818571329116821,0.6137580871582031,0.4255,0.58,0.6319,0.6045,0.5911,0.7778
62,0.6542,0.3999,0.6588,0.6889,0.8495,0.5662,0.6402,0.5753,0.5674,0.7735,0.6295,0.5574,0.6287,0.6389,0.802,0.5209,0.8075,0.5876,0.5287,0.7335,0.5332,0.762,0.562,0.5348,0.7191,0.3883,0.7811068296432495,0.6118648052215576,0.4321,0.5808,0.6334,0.6025,0.5917,0.7755
63,0.6553,0.3976,0.6594,0.6891,0.8513,0.5663,0.6391,0.5756,0.5675,0.7737,0.631,0.5545,0.6299,0.6398,0.8041,0.5207,0.808,0.5863,0.5293,0.733,0.5341,0.7593,0.5625,0.5357,0.7206,0.3888,0.7810140252113342,0.6133291125297546,0.4387,0.5815,0.6317,0.6027,0.5923,0.7765
64,0.6552,0.3955,0.6597,0.6895,0.851,0.5668,0.6393,0.5761,0.5677,0.7725,0.6312,0.5527,0.6302,0.6404,0.8034,0.5218,0.8097,0.5846,0.5303,0.7316,0.5358,0.7566,0.5629,0.5371,0.7217,0.3922,0.7801105380058289,0.6141550540924072,0.4453,0.5822,0.6308,0.6027,0.593,0.776
65,0.6564,0.3961,0.6599,0.6893,0.853,0.5651,0.6378,0.5756,0.5667,0.7736,0.6318,0.5538,0.6307,0.6402,0.8053,0.5199,0.8066,0.586,0.5295,0.7327,0.5341,0.7596,0.5639,0.5359,0.7213,0.3886,0.7790742516517639,0.6130757331848145,0.4519,0.5815,0.6308,0.6032,0.5923,0.7772
66,0.6536,0.397,0.659,0.6893,0.8485,0.5669,0.639,0.5759,0.5677,0.7718,0.6299,0.5535,0.6294,0.6403,0.8005,0.5244,0.8075,0.5827,0.5315,0.7318,0.537,0.757,0.5645,0.5379,0.7213,0.3927,0.7811519503593445,0.6126947402954102,0.4586,0.5824,0.6308,0.6023,0.5933,0.7748
67,0.6529,0.398,0.6588,0.69,0.8468,0.568,0.6398,0.5763,0.5684,0.7713,0.6298,0.5525,0.6294,0.6405,0.8001,0.5268,0.8075,0.5778,0.5328,0.732,0.5363,0.7608,0.5639,0.537,0.7188,0.395,0.7783047556877136,0.6135206818580627,0.4653,0.5828,0.6317,0.6012,0.5937,0.7738
68,0.6531,0.3954,0.6591,0.6901,0.8472,0.5681,0.6398,0.5754,0.5684,0.7703,0.6303,0.5494,0.6299,0.641,0.8001,0.5281,0.8077,0.5774,0.5331,0.7316,0.5391,0.755,0.5654,0.5395,0.7215,0.3893,0.7797012329101562,0.6125091910362244,0.4719,0.5837,0.6295,0.6014,0.5944,0.7741
69,0.6512,0.3979,0.6582,0.69,0.8441,0.5684,0.6388,0.5764,0.5688,0.771,0.6287,0.5525,0.629,0.6415,0.7955,0.5308,0.8067,0.5792,0.5355,0.7314,0.5393,0.7601,0.567,0.5394,0.7192,0.3897,0.776678740978241,0.6142009496688843,0.4785,0.5837,0.6312,0.602,0.595,0.7722
70,0.6564,0.3938,0.6601,0.6894,0.853,0.5679,0.6368,0.5774,0.5686,0.7728,0.6326,0.5475,0.6315,0.6412,0.8059,0.5253,0.8043,0.5831,0.5323,0.734,0.5376,0.7551,0.5676,0.5388,0.7231,0.3896,0.779979944229126,0.6121441125869751,0.4852,0.584,0.6275,0.6039,0.5941,0.7778
71,0.6533,0.3968,0.6587,0.6897,0.8477,0.5684,0.6372,0.5776,0.5689,0.7724,0.6304,0.5504,0.6301,0.6414,0.8002,0.5292,0.8023,0.579,0.5345,0.7337,0.5374,0.7607,0.5676,0.538,0.7193,0.3905,0.7807836532592773,0.61354660987854,0.4918,0.5837,0.6295,0.6026,0.5945,0.7747
72,0.6566,0.3916,0.6599,0.6888,0.8539,0.5682,0.637,0.5767,0.5686,0.772,0.6327,0.5443,0.6318,0.6409,0.8068,0.5259,0.802,0.5781,0.5322,0.7348,0.5389,0.7529,0.5704,0.5399,0.7239,0.3889,0.7743765711784363,0.6172273755073547,0.4984,0.5845,0.6256,0.6034,0.5941,0.7783
73,0.6518,0.3971,0.6585,0.6904,0.8449,0.571,0.641,0.5776,0.5705,0.7693,0.6298,0.5497,0.63,0.6422,0.7977,0.5398,0.8059,0.5836,0.5408,0.7325,0.5409,0.7617,0.5698,0.5406,0.7185,0.3893,0.7792223691940308,0.6122039556503296,0.505,0.5867,0.6311,0.6039,0.5969,0.7726
74,0.6536,0.3925,0.6596,0.6908,0.8477,0.5702,0.6384,0.5776,0.5701,0.7702,0.6311,0.5441,0.6309,0.6425,0.8005,0.5359,0.8054,0.583,0.5387,0.7324,0.5416,0.7541,0.5695,0.5414,0.7212,0.3885,0.7749143242835999,0.6148592829704285,0.5116,0.5865,0.6269,0.6041,0.5967,0.7744
75,0.6519,0.3925,0.6595,0.6914,0.8448,0.5691,0.6376,0.5769,0.5693,0.77,0.6297,0.5452,0.6303,0.6433,0.7964,0.5384,0.805,0.5817,0.5406,0.7306,0.5439,0.7544,0.5711,0.5431,0.7209,0.3955,0.7734363079071045,0.613736093044281,0.5183,0.5866,0.6269,0.6039,0.5975,0.7725
76,0.6524,0.3929,0.6594,0.6913,0.8456,0.5716,0.6389,0.5784,0.5712,0.7696,0.63,0.5442,0.6303,0.6425,0.798,0.5427,0.8055,0.5842,0.543,0.7318,0.5447,0.7553,0.5727,0.5437,0.7208,0.3877,0.7730781435966492,0.6141630411148071,0.5249,0.5883,0.6274,0.605,0.5983,0.7732
77,0.6541,0.3914,0.6599,0.691,0.8484,0.5711,0.6372,0.5794,0.5709,0.7714,0.6322,0.5417,0.6319,0.6437,0.8013,0.5407,0.8024,0.5867,0.5415,0.7342,0.5442,0.7543,0.574,0.5435,0.7221,0.392,0.7754248380661011,0.6137101650238037,0.5316,0.5885,0.6254,0.6064,0.5981,0.7755
78,0.6521,0.3913,0.6596,0.6919,0.8447,0.5733,0.6398,0.5798,0.5724,0.7685,0.6307,0.5413,0.6311,0.6439,0.7976,0.5432,0.8055,0.5785,0.5435,0.7304,0.5468,0.7535,0.5742,0.5455,0.7212,0.3979,0.7707422971725464,0.6163874864578247,0.5383,0.5892,0.6263,0.6046,0.5994,0.7725
79,0.652,0.3919,0.6597,0.6925,0.8441,0.5736,0.6391,0.5807,0.5728,0.7694,0.6301,0.5414,0.6308,0.6438,0.7968,0.546,0.8042,0.583,0.5453,0.7317,0.5477,0.7531,0.5757,0.5463,0.7219,0.4066,0.7729479074478149,0.6143007278442383,0.5452,0.5899,0.6259,0.606,0.6001,0.7728
80,0.6534,0.3913,0.6596,0.691,0.8473,0.5736,0.6386,0.5815,0.5727,0.7705,0.632,0.5413,0.632,0.6444,0.7997,0.5451,0.8021,0.5879,0.5447,0.7343,0.5479,0.7534,0.5792,0.5467,0.7235,0.399,0.775492787361145,0.6132832169532776,0.552,0.5904,0.6253,0.608,0.5999,0.7751
81,0.6573,0.3877,0.661,0.6905,0.8539,0.5711,0.6374,0.5797,0.5708,0.7716,0.6349,0.5365,0.6338,0.644,0.8074,0.5407,0.7998,0.5892,0.5419,0.7364,0.5464,0.7505,0.5805,0.5458,0.726,0.3942,0.7738770842552185,0.6160822510719299,0.5587,0.5901,0.6224,0.6088,0.5986,0.7791
82,0.6522,0.3917,0.6592,0.6913,0.8451,0.5759,0.6388,0.5839,0.5746,0.7703,0.6306,0.5417,0.6312,0.6443,0.7966,0.5495,0.8016,0.5891,0.548,0.7337,0.5496,0.7541,0.5805,0.5479,0.7228,0.3932,0.7747001647949219,0.6140273809432983,0.5653,0.5916,0.6256,0.6088,0.6012,0.7737
83,0.6534,0.389,0.66,0.6915,0.8471,0.5747,0.6374,0.5833,0.5737,0.7706,0.6316,0.5387,0.6319,0.6449,0.7979,0.549,0.8009,0.5907,0.5477,0.7336,0.5514,0.7482,0.5819,0.5496,0.7259,0.3912,0.7717550992965698,0.6140972375869751,0.5721,0.592,0.6228,0.6096,0.6015,0.775
84,0.6532,0.3886,0.66,0.6919,0.8465,0.5759,0.6378,0.5841,0.5746,0.7704,0.6312,0.5374,0.6317,0.6447,0.7974,0.5518,0.8006,0.5908,0.5496,0.7336,0.5514,0.747,0.5819,0.5498,0.7264,0.4011,0.7690183520317078,0.617638349533081,0.5789,0.5927,0.6223,0.6097,0.6021,0.7749
85,0.6524,0.3893,0.6597,0.6918,0.8453,0.5769,0.6376,0.5852,0.5755,0.77,0.6311,0.5376,0.6317,0.6451,0.7964,0.5517,0.8,0.5876,0.5496,0.7329,0.5524,0.7491,0.5833,0.5505,0.7251,0.3897,0.7687993049621582,0.6185181736946106,0.5855,0.5929,0.6227,0.6095,0.6025,0.7739
86,0.6556,0.3837,0.6614,0.6912,0.8511,0.5755,0.6377,0.5841,0.5744,0.7701,0.634,0.5316,0.6335,0.6454,0.8024,0.5509,0.8027,0.5906,0.5495,0.7324,0.5543,0.7401,0.5839,0.5524,0.73,0.3898,0.7727657556533813,0.6172633171081543,0.5921,0.5941,0.6192,0.6107,0.6026,0.7772
87,0.6522,0.3889,0.6595,0.6919,0.8448,0.579,0.6397,0.5866,0.5771,0.7694,0.6306,0.5371,0.6315,0.645,0.7952,0.5531,0.7999,0.585,0.5507,0.7317,0.5543,0.7478,0.5851,0.5522,0.7257,0.3969,0.7698883414268494,0.6172214150428772,0.5988,0.5938,0.6227,0.6095,0.6034,0.7734
88,0.6538,0.3854,0.6603,0.6916,0.8478,0.577,0.6377,0.5858,0.5755,0.7703,0.6321,0.5337,0.6324,0.6453,0.7985,0.5521,0.7996,0.5871,0.5502,0.733,0.5546,0.7447,0.5856,0.5525,0.728,0.388,0.7662413120269775,0.6185760498046875,0.6054,0.5939,0.6202,0.6102,0.603,0.7755
89,0.6538,0.3863,0.6605,0.6925,0.8471,0.5795,0.6399,0.5868,0.5775,0.7692,0.632,0.533,0.6324,0.6453,0.7981,0.5576,0.7996,0.5889,0.5536,0.7336,0.5555,0.7451,0.586,0.5532,0.7268,0.3943,0.7676975727081299,0.6184383630752563,0.6121,0.5957,0.6208,0.6109,0.6044,0.775
90,0.6516,0.3869,0.6601,0.6929,0.8435,0.5809,0.6398,0.5882,0.5788,0.7685,0.6302,0.5341,0.6315,0.6455,0.7932,0.5583,0.8014,0.5848,0.5548,0.7303,0.5581,0.7435,0.5861,0.5555,0.727,0.3938,0.768429160118103,0.6185381412506104,0.6188,0.5958,0.6211,0.6101,0.6055,0.7725
91,0.6494,0.3907,0.6591,0.6933,0.8397,0.5837,0.6411,0.5908,0.5812,0.7689,0.629,0.537,0.6309,0.6458,0.7904,0.5641,0.8005,0.5864,0.5596,0.7307,0.5573,0.7498,0.5854,0.5548,0.7232,0.3917,0.7698580026626587,0.618181049823761,0.6254,0.5967,0.6238,0.6105,0.6069,0.7706
92,0.6506,0.3881,0.6595,0.6928,0.842,0.5837,0.6404,0.5915,0.5811,0.7689,0.6296,0.5353,0.6311,0.6453,0.792,0.5619,0.8005,0.5843,0.5583,0.7296,0.5581,0.7476,0.5863,0.5555,0.7245,0.391,0.7655037045478821,0.6195436120033264,0.6321,0.5968,0.6224,0.6105,0.6066,0.7714
93,0.6501,0.3867,0.6599,0.6938,0.8406,0.5836,0.6402,0.5907,0.5812,0.7678,0.6289,0.5343,0.6309,0.646,0.789,0.5631,0.8014,0.5842,0.5595,0.7282,0.5605,0.7431,0.5871,0.5577,0.7257,0.3894,0.7665062546730042,0.6195775270462036,0.6387,0.5972,0.6211,0.6106,0.6076,0.7703
94,0.652,0.3852,0.6603,0.6928,0.8442,0.5836,0.6392,0.5925,0.581,0.7697,0.6305,0.5317,0.6316,0.6455,0.7936,0.5635,0.801,0.5874,0.5593,0.7303,0.5609,0.7414,0.5893,0.558,0.7285,0.3945,0.7673524022102356,0.6184543371200562,0.6454,0.5981,0.6197,0.6122,0.6073,0.7733
95,0.6523,0.3849,0.66,0.6926,0.8447,0.5844,0.64,0.5924,0.5816,0.7692,0.631,0.5311,0.6319,0.6456,0.7943,0.564,0.7998,0.5886,0.5591,0.7317,0.5601,0.7396,0.5895,0.5574,0.7287,0.3897,0.7640205025672913,0.621428906917572,0.652,0.5984,0.6191,0.6125,0.6073,0.7737
96,0.6523,0.3834,0.6597,0.6912,0.8456,0.5834,0.6374,0.5928,0.5807,0.7704,0.6314,0.5304,0.6321,0.6458,0.7951,0.5613,0.7969,0.5885,0.5571,0.7324,0.5597,0.7393,0.591,0.5571,0.7294,0.3918,0.7628539204597473,0.6222468614578247,0.6587,0.5976,0.6175,0.6128,0.6064,0.7746
97,0.6513,0.385,0.6596,0.6923,0.8433,0.5853,0.6391,0.5935,0.5825,0.7695,0.6304,0.5311,0.6315,0.6458,0.793,0.5665,0.7983,0.5887,0.5615,0.7309,0.5616,0.7418,0.5911,0.5587,0.7273,0.392,0.7675157785415649,0.6190628409385681,0.6653,0.599,0.6191,0.6129,0.6082,0.7728
98,0.6521,0.3828,0.6599,0.6917,0.845,0.5842,0.6377,0.5938,0.5814,0.7701,0.631,0.5297,0.632,0.646,0.7937,0.565,0.7979,0.5886,0.5607,0.7312,0.5627,0.7373,0.5928,0.5597,0.7307,0.3867,0.7636618614196777,0.6210498809814453,0.672,0.599,0.6171,0.6134,0.6079,0.7741
99,0.6523,0.3821,0.6596,0.6902,0.8464,0.584,0.6369,0.5941,0.5811,0.7704,0.6317,0.5291,0.6323,0.646,0.7957,0.5644,0.7959,0.5886,0.56,0.732,0.5626,0.7366,0.5942,0.5596,0.7315,0.3906,0.7633015513420105,0.6211994886398315,0.6786,0.599,0.6161,0.6138,0.6074,0.7752
100,0.6503,0.3856,0.6595,0.6924,0.8417,0.5876,0.6399,0.5962,0.5845,0.7693,0.6292,0.5327,0.6309,0.6456,0.7901,0.5697,0.799,0.5864,0.5655,0.7292,0.5648,0.7415,0.593,0.5617,0.7279,0.39,0.765752375125885,0.6195117235183716,0.6852,0.6003,0.6197,0.6132,0.6099,0.7716
101,0.6513,0.3821,0.6599,0.6916,0.8441,0.5874,0.6395,0.5963,0.5843,0.7691,0.6305,0.5294,0.6317,0.646,0.7923,0.5684,0.8005,0.586,0.5646,0.7279,0.5667,0.7359,0.5943,0.5634,0.7311,0.3924,0.7615031003952026,0.6230827569961548,0.6919,0.6009,0.6175,0.6136,0.61,0.7729
102,0.6511,0.3849,0.6595,0.692,0.8432,0.5898,0.641,0.5985,0.5863,0.7699,0.6303,0.5309,0.6315,0.646,0.7919,0.5711,0.7986,0.5876,0.566,0.7301,0.5653,0.7402,0.5944,0.5622,0.7287,0.39,0.7642144560813904,0.6206787824630737,0.6985,0.6015,0.6191,0.6143,0.6105,0.7728
103,0.6511,0.3842,0.6595,0.6913,0.8437,0.5894,0.6402,0.5985,0.5859,0.77,0.6305,0.5304,0.6317,0.646,0.7923,0.5721,0.7992,0.5884,0.5673,0.7297,0.5669,0.7386,0.5953,0.5637,0.7299,0.3874,0.764136791229248,0.6209201812744141,0.7051,0.602,0.6185,0.6147,0.6108,0.7731
104,0.6518,0.3801,0.6596,0.69,0.846,0.5858,0.6366,0.5967,0.5826,0.7708,0.6306,0.5278,0.6316,0.6456,0.7929,0.5659,0.7965,0.586,0.5622,0.729,0.5666,0.7314,0.596,0.5633,0.7336,0.3934,0.7632109522819519,0.6238967776298523,0.7117,0.6001,0.6145,0.614,0.6087,0.7745
105,0.6497,0.3848,0.6592,0.6919,0.8412,0.5906,0.6395,0.5994,0.587,0.7695,0.6286,0.5317,0.6306,0.6458,0.7882,0.5729,0.7979,0.5879,0.5683,0.7291,0.5667,0.7389,0.5945,0.5636,0.7287,0.3958,0.7662937045097351,0.6209481358528137,0.7185,0.6017,0.6186,0.6143,0.6113,0.7713
106,0.6512,0.3804,0.6595,0.6901,0.8448,0.5904,0.6382,0.6001,0.5868,0.7705,0.6304,0.5277,0.6316,0.6459,0.792,0.5702,0.7986,0.5869,0.5662,0.7274,0.5682,0.7328,0.5957,0.5649,0.7322,0.3957,0.7626474499702454,0.622318685054779,0.7252,0.6021,0.6155,0.6148,0.6108,0.7734
107,0.6502,0.3818,0.6597,0.6919,0.8422,0.5927,0.6397,0.6004,0.5892,0.7687,0.6295,0.5287,0.6314,0.6465,0.7895,0.5756,0.8004,0.5887,0.5717,0.7268,0.5698,0.7348,0.5955,0.5666,0.7304,0.3846,0.7611789703369141,0.6224722862243652,0.7317,0.6036,0.6171,0.6151,0.6132,0.7715
108,0.6515,0.3787,0.6597,0.6902,0.8454,0.5899,0.6367,0.6004,0.5862,0.7709,0.6304,0.5264,0.6316,0.6458,0.7925,0.571,0.7973,0.5877,0.5668,0.7282,0.5689,0.7313,0.5969,0.5655,0.7331,0.3946,0.7579230070114136,0.6257501244544983,0.7384,0.6023,0.6141,0.6153,0.6109,0.774
109,0.6502,0.3828,0.6589,0.6903,0.8429,0.5938,0.6396,0.6019,0.5901,0.7693,0.6295,0.5293,0.631,0.6457,0.7908,0.5776,0.797,0.5901,0.5728,0.7287,0.5673,0.7407,0.5956,0.5642,0.7269,0.3898,0.7602171301841736,0.6233102083206177,0.745,0.6037,0.6179,0.6155,0.6126,0.7717
110,0.649,0.3835,0.6588,0.6913,0.8404,0.5949,0.6392,0.6026,0.5913,0.7693,0.6279,0.5314,0.6302,0.6457,0.7867,0.5775,0.7974,0.587,0.5741,0.726,0.5675,0.7408,0.5941,0.5646,0.7257,0.3897,0.7612707018852234,0.6239745616912842,0.7516,0.6034,0.6185,0.6145,0.6134,0.7696
111,0.6528,0.3787,0.6595,0.689,0.8481,0.5924,0.6366,0.6032,0.5883,0.7718,0.6321,0.5256,0.6325,0.6462,0.796,0.5743,0.7938,0.591,0.5692,0.7297,0.5694,0.733,0.5998,0.5658,0.7321,0.3908,0.7623741030693054,0.625165581703186,0.7583,0.6042,0.6135,0.6172,0.6117,0.7755
112,0.6465,0.3861,0.659,0.694,0.8351,0.5997,0.6436,0.6042,0.5971,0.7663,0.6247,0.5331,0.6287,0.6451,0.7812,0.581,0.8021,0.5837,0.5806,0.7202,0.5677,0.7402,0.5892,0.5658,0.7222,0.3968,0.7666276097297668,0.6190348863601685,0.765,0.6039,0.621,0.613,0.6165,0.765
113,0.6489,0.3829,0.6586,0.6902,0.8411,0.596,0.6382,0.6051,0.592,0.7704,0.6279,0.5303,0.6302,0.6458,0.787,0.5784,0.7956,0.5873,0.5755,0.7255,0.5685,0.7375,0.5947,0.5655,0.7271,0.39,0.7629079222679138,0.6238688230514526,0.7716,0.6039,0.6169,0.6152,0.6138,0.7702
114,0.6494,0.3825,0.6587,0.6899,0.8421,0.596,0.6375,0.6057,0.5917,0.7708,0.6282,0.5297,0.6303,0.6455,0.7882,0.5788,0.794,0.5892,0.5752,0.7271,0.5682,0.7378,0.5955,0.5652,0.727,0.4073,0.7619271278381348,0.6242997646331787,0.7786,0.6041,0.6163,0.6159,0.6135,0.771
115,0.651,0.378,0.6597,0.6905,0.8444,0.5958,0.638,0.6035,0.592,0.769,0.6302,0.525,0.6317,0.6464,0.7913,0.5782,0.7963,0.5888,0.5746,0.7263,0.5714,0.729,0.5969,0.5682,0.7316,0.4019,0.756902277469635,0.6264543533325195,0.7854,0.6053,0.6133,0.6161,0.6143,0.7725
116,0.6484,0.3823,0.6586,0.691,0.8398,0.5987,0.6395,0.6057,0.595,0.7688,0.627,0.5298,0.6297,0.6454,0.7854,0.5807,0.7967,0.5869,0.5784,0.7241,0.5683,0.7366,0.5929,0.5657,0.7259,0.4008,0.7594602108001709,0.6258358955383301,0.7923,0.6046,0.617,0.6148,0.6151,0.7688
117,0.65,0.3804,0.659,0.6902,0.8428,0.5988,0.6397,0.6064,0.5948,0.7694,0.6285,0.5278,0.6305,0.6455,0.7886,0.5807,0.7965,0.5882,0.5777,0.7254,0.5705,0.7327,0.5955,0.5676,0.7291,0.4014,0.7635747790336609,0.622157096862793,0.7991,0.6057,0.6154,0.6159,0.6152,0.7711
118,0.6506,0.3786,0.6592,0.6895,0.8443,0.5982,0.6375,0.6075,0.5938,0.7711,0.6291,0.5262,0.6308,0.6455,0.7898,0.579,0.7953,0.5885,0.5756,0.7268,0.5718,0.7286,0.5976,0.5685,0.7322,0.3944,0.7592442035675049,0.6245710849761963,0.8058,0.6057,0.6132,0.6167,0.6146,0.7728
119,0.6499,0.3802,0.6588,0.6897,0.843,0.5989,0.6384,0.6072,0.5948,0.7702,0.6282,0.5278,0.6303,0.6455,0.788,0.5817,0.7947,0.5896,0.5782,0.7262,0.5702,0.732,0.5957,0.5672,0.7292,0.396,0.7579337954521179,0.6268773078918457,0.8125,0.6058,0.6146,0.6163,0.6151,0.7713
120,0.6532,0.3749,0.66,0.6888,0.8491,0.5973,0.6357,0.609,0.5925,0.7727,0.6314,0.5231,0.6322,0.646,0.7944,0.5782,0.7932,0.5907,0.5741,0.7283,0.5741,0.7244,0.6024,0.5703,0.7364,0.3975,0.7555286288261414,0.6282339096069336,0.8192,0.6068,0.6103,0.6189,0.6143,0.7762
121,0.6504,0.3794,0.6589,0.6894,0.844,0.6004,0.639,0.609,0.596,0.7708,0.6285,0.5272,0.6304,0.6453,0.7889,0.5817,0.7943,0.589,0.5783,0.7263,0.5708,0.7322,0.5967,0.5678,0.7299,0.399,0.7584367394447327,0.6265221834182739,0.826,0.6064,0.6144,0.6168,0.6154,0.772
122,0.648,0.3821,0.6587,0.6909,0.8393,0.6028,0.6416,0.6085,0.5993,0.7686,0.6257,0.5293,0.6289,0.6445,0.7843,0.5836,0.7972,0.5852,0.5833,0.721,0.5688,0.7353,0.5916,0.5667,0.725,0.3917,0.7577716708183289,0.6267017722129822,0.8326,0.6058,0.6171,0.6146,0.6169,0.7676
123,0.6503,0.3806,0.6589,0.6893,0.8439,0.6024,0.6403,0.6105,0.5981,0.7706,0.6283,0.5274,0.6302,0.6449,0.7891,0.5826,0.7945,0.5873,0.5804,0.7243,0.5714,0.7327,0.5967,0.5686,0.7291,0.3938,0.7653366923332214,0.6224303841590881,0.8393,0.607,0.6151,0.6167,0.6163,0.7714
124,0.651,0.3774,0.6595,0.6893,0.8453,0.6016,0.6378,0.6114,0.597,0.7714,0.629,0.5254,0.6308,0.6455,0.7899,0.5798,0.7949,0.5849,0.5784,0.7227,0.574,0.7271,0.5984,0.5709,0.7327,0.394,0.7584163546562195,0.6288284659385681,0.846,0.6071,0.6125,0.617,0.6162,0.7724
125,0.6527,0.3752,0.66,0.6889,0.8483,0.5995,0.6351,0.6122,0.5943,0.773,0.6302,0.5235,0.6314,0.6457,0.7923,0.5791,0.7916,0.5879,0.5761,0.7258,0.5743,0.7235,0.6011,0.5707,0.7357,0.39,0.7584037780761719,0.6274399161338806,0.8527,0.6072,0.6098,0.6185,0.6151,0.775
126,0.6498,0.3785,0.659,0.6892,0.8434,0.6027,0.6381,0.612,0.598,0.7712,0.6273,0.5268,0.6297,0.6447,0.787,0.5811,0.793,0.5851,0.5798,0.7229,0.5722,0.7293,0.5967,0.5693,0.7301,0.3903,0.7547803521156311,0.6288743019104004,0.8593,0.6066,0.6131,0.6165,0.6162,0.7709
127,0.6521,0.3763,0.6598,0.6891,0.8471,0.6028,0.636,0.6144,0.5976,0.7726,0.6292,0.525,0.6308,0.6453,0.7909,0.5797,0.7917,0.5853,0.5781,0.7237,0.5733,0.7273,0.5989,0.57,0.7324,0.3913,0.7580080628395081,0.6254827976226807,0.8659,0.6074,0.6113,0.6178,0.616,0.7733
128,0.6512,0.3773,0.6593,0.6892,0.8456,0.6031,0.6381,0.6122,0.5984,0.7715,0.6286,0.5252,0.6304,0.6452,0.7894,0.5828,0.7919,0.5873,0.5807,0.724,0.572,0.7283,0.5971,0.5691,0.7302,0.3899,0.7578125596046448,0.627411961555481,0.8725,0.6075,0.6122,0.6173,0.6165,0.7721
129,0.6508,0.3755,0.6596,0.6891,0.8452,0.6037,0.6364,0.6138,0.5989,0.7714,0.6283,0.5241,0.6304,0.6453,0.7887,0.5816,0.7928,0.5846,0.5817,0.721,0.5735,0.725,0.5965,0.5705,0.7322,0.3915,0.757875382900238,0.6275017261505127,0.8793,0.6076,0.6108,0.617,0.6171,0.7717
130,0.6504,0.3757,0.6593,0.6889,0.8446,0.6026,0.635,0.6132,0.5977,0.7718,0.6273,0.5241,0.6298,0.6448,0.7874,0.5815,0.7906,0.5857,0.5806,0.7232,0.5737,0.7237,0.5975,0.5707,0.7325,0.3898,0.7545983791351318,0.6299775838851929,0.8859,0.6071,0.6098,0.6171,0.6165,0.7719
131,0.6493,0.3796,0.6586,0.689,0.8427,0.6049,0.6362,0.6144,0.6001,0.7717,0.6257,0.5282,0.6286,0.644,0.7851,0.5845,0.7887,0.5865,0.5842,0.7221,0.5697,0.7314,0.5939,0.5672,0.7262,0.3891,0.7605463266372681,0.6275456547737122,0.8925,0.6068,0.6128,0.6164,0.6169,0.7696
132,0.6517,0.3745,0.6602,0.6895,0.8464,0.6039,0.6346,0.6156,0.5987,0.7724,0.6286,0.5229,0.6306,0.6455,0.7892,0.5812,0.7909,0.5839,0.5817,0.7206,0.5748,0.7224,0.5975,0.5716,0.7334,0.3934,0.7540749907493591,0.6282718181610107,0.8992,0.608,0.6091,0.6176,0.6174,0.7724
133,0.6512,0.3754,0.66,0.6891,0.8459,0.6065,0.6365,0.6155,0.602,0.7706,0.6285,0.524,0.6306,0.6454,0.7891,0.5831,0.7924,0.5828,0.5854,0.7178,0.5736,0.7252,0.5948,0.571,0.7306,0.3939,0.7581393122673035,0.628521203994751,0.9059,0.6086,0.6107,0.6167,0.6186,0.7708
134,0.6534,0.3742,0.6602,0.6885,0.8498,0.6031,0.6325,0.6187,0.597,0.7751,0.6301,0.5224,0.6313,0.6453,0.7929,0.5818,0.7868,0.5867,0.5807,0.7243,0.5743,0.7245,0.5998,0.5708,0.7331,0.3898,0.7567325830459595,0.6292493939399719,0.9125,0.6085,0.6081,0.6193,0.6165,0.775
135,0.65,0.3778,0.659,0.6891,0.8438,0.6071,0.6376,0.6155,0.6024,0.7713,0.6268,0.526,0.6295,0.6448,0.7865,0.5857,0.7909,0.5862,0.5863,0.7211,0.5718,0.7277,0.5942,0.5694,0.728,0.3893,0.7580986022949219,0.6283695697784424,0.9191,0.6083,0.612,0.6169,0.6184,0.7701
136,0.6503,0.3765,0.6597,0.69,0.8439,0.609,0.6398,0.6153,0.6051,0.7695,0.6274,0.5235,0.6301,0.6453,0.7869,0.5852,0.7947,0.5839,0.5872,0.7184,0.574,0.7234,0.5943,0.5718,0.7301,0.3901,0.7566707730293274,0.6282039880752563,0.9257,0.6092,0.6116,0.6167,0.6199,0.7698
137,0.6544,0.3717,0.6604,0.6885,0.8513,0.6048,0.6331,0.6178,0.599,0.7742,0.6309,0.5195,0.6319,0.6456,0.7944,0.5837,0.7866,0.5898,0.5812,0.7264,0.5754,0.7196,0.6015,0.5718,0.7357,0.3866,0.7523359060287476,0.6328404545783997,0.9324,0.6098,0.6061,0.6203,0.6172,0.7764
138,0.6538,0.3719,0.6602,0.6885,0.8504,0.6048,0.633,0.6187,0.5987,0.7746,0.6306,0.5204,0.6317,0.6458,0.7932,0.5838,0.7865,0.5887,0.5822,0.7252,0.5746,0.7209,0.6003,0.5712,0.7344,0.3893,0.7550002336502075,0.6319506764411926,0.939,0.6095,0.6065,0.6199,0.6173,0.7756
139,0.6511,0.374,0.6599,0.6891,0.8457,0.6108,0.6369,0.6201,0.6058,0.7722,0.6282,0.5221,0.6305,0.6455,0.7885,0.5839,0.7918,0.5829,0.5865,0.7186,0.5746,0.7223,0.5954,0.5721,0.7314,0.3916,0.7529982328414917,0.6315256953239441,0.9457,0.6097,0.6094,0.6178,0.6198,0.7713
140,0.6483,0.3782,0.6589,0.6899,0.8406,0.6128,0.6393,0.6185,0.6091,0.7696,0.6258,0.5264,0.6293,0.6459,0.783,0.5823,0.793,0.5787,0.5868,0.7147,0.573,0.7274,0.5927,0.5714,0.7261,0.3921,0.7560662627220154,0.6280105113983154,0.9523,0.6084,0.6129,0.6156,0.6206,0.7668
141,0.6522,0.3734,0.6603,0.689,0.8477,0.611,0.6362,0.6205,0.6059,0.7724,0.6287,0.5213,0.6307,0.6455,0.7894,0.5854,0.7904,0.5854,0.5871,0.7199,0.5758,0.7192,0.5966,0.5731,0.7331,0.3889,0.7564625144004822,0.6301671266555786,0.9589,0.6106,0.6081,0.6187,0.6201,0.7725
142,0.6506,0.3748,0.6601,0.6902,0.8443,0.6127,0.6376,0.6195,0.6086,0.7706,0.6275,0.523,0.6303,0.646,0.7864,0.5822,0.7925,0.5791,0.5865,0.715,0.575,0.721,0.5937,0.5731,0.7296,0.3931,0.7547394037246704,0.6323057413101196,0.9656,0.6096,0.6098,0.6165,0.6209,0.7692
143,0.6501,0.3771,0.6591,0.6889,0.8442,0.6116,0.6357,0.6206,0.6065,0.7722,0.6265,0.5254,0.6294,0.645,0.7855,0.5841,0.7875,0.5823,0.5867,0.7186,0.5724,0.7261,0.5932,0.5703,0.7266,0.3942,0.7553597092628479,0.6305640935897827,0.9723,0.6089,0.6104,0.6169,0.6195,0.7694
144,0.6502,0.3771,0.6593,0.6897,0.8437,0.6135,0.6369,0.6205,0.6092,0.7707,0.6262,0.5253,0.6292,0.645,0.7847,0.5837,0.7879,0.5815,0.5866,0.7174,0.5728,0.7251,0.5932,0.571,0.7264,0.3967,0.7571648955345154,0.6307556629180908,0.979,0.6093,0.6105,0.6167,0.6203,0.7686
145,0.6523,0.3729,0.6598,0.6883,0.8482,0.6121,0.6344,0.6221,0.6066,0.7729,0.6286,0.5216,0.6306,0.6454,0.7892,0.5852,0.787,0.5846,0.5872,0.7204,0.5746,0.7193,0.5958,0.572,0.7315,0.3819,0.75102698802948,0.63365638256073,0.9855,0.6106,0.607,0.6186,0.6199,0.7724
146,0.6504,0.3746,0.6595,0.6893,0.8444,0.6138,0.6356,0.6212,0.6094,0.7709,0.6265,0.5236,0.6294,0.6452,0.7846,0.5827,0.7882,0.5798,0.5868,0.7159,0.5741,0.7206,0.5934,0.5721,0.7284,0.3903,0.7564730048179626,0.6296443939208984,0.9922,0.6095,0.6085,0.6167,0.6206,0.7688
147,0.6517,0.3709,0.6605,0.689,0.8471,0.6123,0.6348,0.6212,0.6076,0.7715,0.6278,0.5199,0.6303,0.6454,0.7871,0.5821,0.7905,0.5794,0.5867,0.7154,0.5786,0.714,0.5962,0.5762,0.7343,0.383,0.7545143365859985,0.6300992965698242,0.9987,0.6105,0.606,0.6175,0.621,0.7711
148,0.6495,0.3746,0.6595,0.6895,0.843,0.6154,0.6361,0.622,0.6115,0.771,0.626,0.5236,0.6295,0.6461,0.7832,0.5834,0.7894,0.5795,0.5885,0.7154,0.5746,0.7206,0.5926,0.5729,0.7276,0.3882,0.7540973424911499,0.6310070157051086,1.0053,0.6098,0.6089,0.6166,0.6217,0.768
149,0.6495,0.3751,0.6592,0.6895,0.8429,0.6156,0.6354,0.6223,0.6114,0.7709,0.6258,0.5242,0.6292,0.6456,0.7831,0.5838,0.7873,0.5808,0.5877,0.7163,0.5742,0.7216,0.593,0.5725,0.7269,0.3909,0.7543131709098816,0.6300513744354248,1.0119,0.6098,0.6087,0.6169,0.6213,0.768
150,0.6497,0.3777,0.6585,0.6885,0.8436,0.6167,0.6357,0.6238,0.6122,0.7718,0.6258,0.5259,0.6288,0.6447,0.7843,0.586,0.7839,0.5835,0.5891,0.7194,0.5719,0.7266,0.593,0.5702,0.7242,0.3913,0.7569165825843811,0.6301192045211792,1.0186,0.61,0.61,0.6175,0.6209,0.7687
151,0.6502,0.3762,0.6589,0.6888,0.8442,0.617,0.6369,0.6227,0.6132,0.7706,0.6265,0.5245,0.6293,0.6451,0.7851,0.5855,0.7859,0.5818,0.5898,0.7174,0.5724,0.725,0.5926,0.5709,0.7247,0.3995,0.752714216709137,0.633871853351593,1.0254,0.6103,0.6097,0.6171,0.6216,0.7684
152,0.6529,0.3711,0.6601,0.6878,0.8495,0.6171,0.6342,0.6258,0.612,0.7729,0.6293,0.5198,0.631,0.6456,0.7901,0.5844,0.786,0.5814,0.5885,0.7174,0.576,0.7178,0.5953,0.5738,0.7306,0.3931,0.7531839609146118,0.6327566504478455,1.0321,0.6119,0.6058,0.6187,0.6215,0.7721
153,0.6522,0.3725,0.6597,0.688,0.8482,0.6166,0.6334,0.6259,0.6112,0.7737,0.6281,0.5213,0.6302,0.6453,0.7877,0.5864,0.7838,0.584,0.5898,0.7194,0.575,0.7201,0.5948,0.5728,0.7292,0.3921,0.7541234493255615,0.6325830817222595,1.0387,0.6117,0.6062,0.6189,0.6214,0.7716
154,0.6521,0.372,0.6598,0.6883,0.8479,0.6167,0.6332,0.6257,0.6115,0.7732,0.6279,0.521,0.6302,0.6457,0.7874,0.586,0.7834,0.5835,0.5896,0.7189,0.5755,0.7185,0.5948,0.5733,0.7295,0.4044,0.7548723816871643,0.6321202516555786,1.0456,0.6116,0.6056,0.6188,0.6217,0.7714
155,0.6517,0.3726,0.6594,0.6879,0.8474,0.6167,0.6325,0.6264,0.6112,0.7737,0.6275,0.5217,0.6298,0.6452,0.7868,0.5852,0.7817,0.5827,0.5889,0.7197,0.575,0.7201,0.595,0.5728,0.7287,0.3998,0.7532387375831604,0.6335965394973755,1.0524,0.6112,0.6057,0.6187,0.6212,0.7713
156,0.6524,0.3709,0.6597,0.6876,0.8489,0.6163,0.6324,0.6254,0.6111,0.773,0.6282,0.5201,0.6302,0.6452,0.7881,0.5851,0.7819,0.5828,0.5886,0.719,0.576,0.717,0.5953,0.5738,0.7303,0.3987,0.7545519471168518,0.6334549188613892,1.0592,0.6116,0.6045,0.6187,0.6213,0.7719
157,0.6492,0.375,0.6592,0.6895,0.8424,0.6201,0.6358,0.6245,0.6173,0.7701,0.625,0.5237,0.6288,0.6456,0.7817,0.5858,0.7863,0.5795,0.5938,0.7139,0.5725,0.7219,0.589,0.5717,0.7235,0.568,0.752286434173584,0.6332833170890808,1.0688,0.6105,0.6085,0.6162,0.6236,0.7663
158,0.6531,0.3708,0.6602,0.6878,0.85,0.618,0.6337,0.6266,0.6128,0.7732,0.629,0.5184,0.6307,0.6455,0.7899,0.5857,0.7843,0.5832,0.5892,0.7193,0.5775,0.7144,0.5962,0.5753,0.7322,0.5503,0.7571247220039368,0.6337302327156067,1.078,0.6127,0.6043,0.6194,0.6221,0.7729
159,0.651,0.372,0.6602,0.6894,0.8456,0.6212,0.6361,0.6257,0.6185,0.7703,0.6269,0.5207,0.6299,0.6459,0.785,0.5854,0.7884,0.5788,0.5943,0.7128,0.5756,0.717,0.5906,0.5747,0.7273,0.4701,0.7516127824783325,0.6328444480895996,1.0861,0.612,0.6068,0.617,0.6246,0.7682
160,0.652,0.3718,0.6598,0.688,0.8479,0.6214,0.6345,0.6275,0.6175,0.7719,0.6281,0.5204,0.6304,0.6459,0.7876,0.5849,0.7835,0.5799,0.5914,0.7165,0.5747,0.7196,0.5922,0.5733,0.7268,0.4384,0.7501426339149475,0.6349232196807861,1.0935,0.6122,0.606,0.618,0.6232,0.7701
161,0.6522,0.3707,0.6598,0.6874,0.8487,0.6215,0.6331,0.6291,0.6169,0.7731,0.6281,0.5199,0.6304,0.6459,0.7877,0.5855,0.7831,0.581,0.5918,0.7172,0.5757,0.7169,0.5929,0.574,0.7285,0.4163,0.7505557537078857,0.6358369588851929,1.1006,0.6126,0.6047,0.6186,0.6232,0.771
162,0.6513,0.3738,0.6593,0.6882,0.8466,0.6229,0.6358,0.6271,0.62,0.7706,0.6273,0.522,0.6299,0.6455,0.7867,0.5869,0.7829,0.5815,0.5936,0.7167,0.5726,0.7222,0.5905,0.5716,0.7235,0.4107,0.754244327545166,0.6322778463363647,1.1076,0.6122,0.6073,0.6177,0.6238,0.7688
163,0.6512,0.3729,0.6592,0.6873,0.8471,0.623,0.6357,0.6275,0.6201,0.7712,0.6269,0.5221,0.6296,0.6452,0.7859,0.5857,0.7845,0.5794,0.594,0.7143,0.5737,0.7203,0.5905,0.5727,0.7248,0.4047,0.7536333799362183,0.6328424215316772,1.1144,0.6121,0.6071,0.6172,0.6239,0.7687
164,0.6494,0.3743,0.6594,0.6894,0.8428,0.6224,0.6382,0.6233,0.6225,0.7668,0.6251,0.5233,0.6289,0.6459,0.7815,0.5858,0.7873,0.578,0.5966,0.7108,0.5727,0.7196,0.5879,0.5724,0.7226,0.4012,0.7519217133522034,0.6336743235588074,1.1212,0.6111,0.6085,0.6155,0.6254,0.7649
165,0.6519,0.3707,0.6596,0.6874,0.8482,0.6221,0.6352,0.6264,0.6192,0.7704,0.6275,0.5193,0.63,0.6453,0.7867,0.5883,0.7834,0.5837,0.5943,0.7179,0.5775,0.7134,0.5944,0.5759,0.7303,0.4,0.7517534494400024,0.6349032521247864,1.128,0.6135,0.6044,0.6188,0.6244,0.7707
166,0.6522,0.37,0.6595,0.6867,0.8493,0.6222,0.634,0.6283,0.6182,0.7721,0.6278,0.5191,0.6301,0.6453,0.7873,0.5874,0.783,0.5831,0.5931,0.7185,0.577,0.7137,0.594,0.5753,0.7302,0.3973,0.7525782585144043,0.6344922780990601,1.1348,0.6133,0.604,0.619,0.6237,0.7715
167,0.6524,0.3687,0.6599,0.6869,0.8495,0.6228,0.6338,0.6282,0.6195,0.7715,0.6279,0.5179,0.6302,0.6452,0.7875,0.587,0.7831,0.582,0.5939,0.7165,0.5774,0.7126,0.5935,0.576,0.73,0.3951,0.746140718460083,0.6365152597427368,1.1415,0.6135,0.6032,0.6188,0.6243,0.771
168,0.6523,0.3698,0.6594,0.6867,0.8493,0.622,0.6333,0.6281,0.6179,0.7717,0.6276,0.519,0.6298,0.6449,0.7874,0.5905,0.7805,0.5866,0.5955,0.7214,0.5766,0.714,0.5946,0.5749,0.7294,0.3962,0.7479808330535889,0.636768639087677,1.1482,0.6138,0.6033,0.6197,0.624,0.7718
169,0.6522,0.3686,0.6597,0.686,0.8498,0.6233,0.6331,0.6293,0.6196,0.7722,0.628,0.5178,0.6303,0.6454,0.7876,0.5878,0.7829,0.5826,0.5949,0.7163,0.5783,0.7102,0.5936,0.5767,0.7314,0.3942,0.754905641078949,0.6338279843330383,1.1549,0.6139,0.6025,0.6191,0.6245,0.7715
170,0.6528,0.3685,0.6588,0.6836,0.8525,0.6227,0.6303,0.6319,0.6173,0.7744,0.6277,0.5201,0.6296,0.644,0.7887,0.5889,0.777,0.585,0.5945,0.7205,0.5755,0.714,0.5933,0.5736,0.7289,0.3931,0.7523015737533569,0.6346479058265686,1.1616,0.6135,0.602,0.6197,0.6226,0.773
171,0.6525,0.3695,0.6589,0.6846,0.8513,0.6245,0.6328,0.6305,0.6205,0.772,0.6278,0.5191,0.6297,0.644,0.789,0.5898,0.7786,0.5853,0.5955,0.7199,0.5755,0.7149,0.5933,0.5739,0.728,0.3971,0.7504886388778687,0.6355077624320984,1.1684,0.614,0.603,0.6195,0.6237,0.772
172,0.6501,0.3721,0.6594,0.6879,0.845,0.6256,0.6363,0.6269,0.6255,0.7681,0.6252,0.5222,0.6289,0.646,0.7814,0.585,0.7847,0.5765,0.5972,0.7091,0.5744,0.7165,0.5884,0.5745,0.7231,0.3964,0.7511518001556396,0.6348932981491089,1.1751,0.6121,0.6064,0.616,0.6262,0.7653
173,0.651,0.3703,0.6594,0.6864,0.8477,0.6261,0.6345,0.6291,0.6247,0.7704,0.6263,0.5204,0.6294,0.6456,0.7841,0.5844,0.7834,0.5765,0.5959,0.7103,0.5746,0.7151,0.5885,0.5743,0.7247,0.391,0.7511056661605835,0.6348434090614319,1.1817,0.6125,0.6047,0.6166,0.6254,0.7674
174,0.65,0.3729,0.6589,0.6872,0.8453,0.6265,0.6359,0.6276,0.6264,0.7682,0.625,0.5226,0.6286,0.6452,0.7822,0.5839,0.7825,0.5754,0.5961,0.7094,0.5723,0.7195,0.5873,0.5724,0.7208,0.6431,0.7536289095878601,0.6338818073272705,1.1926,0.6115,0.6067,0.6156,0.6255,0.7652
175,0.6522,0.3675,0.6596,0.685,0.8506,0.6264,0.6322,0.6317,0.6236,0.7718,0.6275,0.5177,0.6299,0.645,0.7874,0.5862,0.7813,0.5791,0.5969,0.7125,0.5769,0.7109,0.5906,0.5758,0.7288,0.5108,0.7516542077064514,0.6335965394973755,1.2012,0.6138,0.6019,0.6182,0.6253,0.7702
176,0.654,0.3642,0.6594,0.6825,0.8557,0.6258,0.6292,0.6344,0.6208,0.7748,0.6307,0.5135,0.6316,0.6451,0.7936,0.5898,0.7776,0.5857,0.5964,0.7188,0.5807,0.7064,0.5969,0.5785,0.7348,0.461,0.7473852634429932,0.6380294561386108,1.209,0.6162,0.5982,0.6216,0.6247,0.7755
177,0.6524,0.3688,0.6591,0.6849,0.8509,0.6269,0.6331,0.6296,0.6252,0.7699,0.6282,0.5174,0.6302,0.6449,0.7893,0.5887,0.7786,0.5823,0.5969,0.7164,0.5749,0.7145,0.591,0.5742,0.7255,0.437,0.7470965385437012,0.6383546590805054,1.2164,0.6142,0.6025,0.6184,0.6252,0.7704
178,0.6518,0.3665,0.6596,0.6854,0.8498,0.6275,0.6324,0.6305,0.6262,0.7708,0.6282,0.5154,0.6305,0.646,0.7877,0.5852,0.7821,0.5775,0.5966,0.7107,0.578,0.7081,0.5909,0.5773,0.7294,0.4178,0.7449602484703064,0.6390150189399719,1.2235,0.6141,0.6009,0.6178,0.6263,0.7697
179,0.6514,0.3691,0.6593,0.6858,0.8487,0.6276,0.6337,0.6294,0.6269,0.7696,0.6274,0.5178,0.6299,0.6456,0.7871,0.585,0.7807,0.5768,0.5967,0.7111,0.5748,0.7137,0.5889,0.5745,0.7241,0.4084,0.7504282593727112,0.6365092992782593,1.2305,0.6132,0.603,0.6169,0.6259,0.7681
180,0.6504,0.3704,0.6591,0.6863,0.8467,0.6272,0.6352,0.627,0.6283,0.7672,0.6262,0.5187,0.6294,0.6454,0.7848,0.5843,0.7817,0.5755,0.5972,0.7086,0.5736,0.7147,0.5872,0.574,0.7216,0.4014,0.7519041299819946,0.6358209848403931,1.2373,0.6123,0.6041,0.6156,0.6262,0.7658
181,0.6502,0.3709,0.6587,0.6855,0.8468,0.6285,0.6332,0.6304,0.6279,0.7702,0.625,0.521,0.6285,0.6451,0.7827,0.5835,0.7795,0.5746,0.5968,0.7088,0.5722,0.7173,0.5861,0.5725,0.7203,0.4029,0.7493304014205933,0.6359566450119019,1.2441,0.6119,0.6044,0.6157,0.6256,0.7658
182,0.6513,0.368,0.6589,0.6846,0.8494,0.6282,0.6324,0.6302,0.6273,0.7698,0.6272,0.517,0.6297,0.6452,0.787,0.5857,0.7792,0.5777,0.5973,0.7122,0.5762,0.7119,0.5901,0.5758,0.7258,0.4046,0.7437210083007812,0.6396195292472839,1.251,0.6137,0.6017,0.6173,0.626,0.7688
183,0.652,0.3678,0.6585,0.6835,0.8512,0.6292,0.6317,0.6322,0.6273,0.7709,0.6276,0.5179,0.6296,0.6443,0.7885,0.587,0.7761,0.5796,0.5974,0.7142,0.5741,0.7148,0.5893,0.5736,0.7237,0.3948,0.7448320984840393,0.6389232277870178,1.2577,0.614,0.6017,0.6178,0.6252,0.7697
184,0.6511,0.3686,0.6583,0.6839,0.8494,0.629,0.6341,0.6295,0.6294,0.7682,0.6272,0.5183,0.6294,0.6446,0.7873,0.5847,0.7788,0.576,0.5972,0.7093,0.5738,0.715,0.5883,0.5738,0.7224,0.3923,0.7448491454124451,0.6373531818389893,1.2644,0.6132,0.603,0.6163,0.6258,0.7673
185,0.6497,0.3704,0.6585,0.6854,0.8462,0.6274,0.6359,0.626,0.6302,0.7655,0.6254,0.5204,0.6287,0.645,0.7833,0.5823,0.7822,0.5723,0.5985,0.7044,0.5728,0.7155,0.5856,0.5737,0.7202,0.3932,0.7468398213386536,0.6377840638160706,1.2711,0.6115,0.6049,0.6142,0.6266,0.7639
186,0.6516,0.3673,0.6585,0.6833,0.8509,0.6296,0.6326,0.6311,0.629,0.7695,0.6274,0.5175,0.6294,0.6442,0.7881,0.5855,0.7778,0.577,0.5978,0.7112,0.575,0.7137,0.5891,0.5748,0.724,0.3925,0.7468628883361816,0.6374109983444214,1.2777,0.6138,0.6018,0.617,0.6258,0.7687
187,0.6521,0.3652,0.6588,0.6825,0.8525,0.6304,0.63,0.6345,0.6281,0.7727,0.6285,0.5147,0.6303,0.6449,0.7899,0.5865,0.7769,0.5786,0.598,0.7129,0.5771,0.7098,0.5903,0.5766,0.7271,0.3928,0.7485101819038391,0.6372215151786804,1.2844,0.6149,0.5993,0.6185,0.626,0.771
188,0.6486,0.3714,0.6578,0.6851,0.8444,0.628,0.6339,0.6277,0.6291,0.7673,0.6241,0.5208,0.6279,0.6447,0.7812,0.5852,0.7781,0.5764,0.5983,0.7089,0.5716,0.7165,0.5854,0.5724,0.7185,0.3956,0.7478594183921814,0.6389631628990173,1.2911,0.6115,0.6041,0.615,0.6259,0.7641
189,0.6526,0.3652,0.6583,0.6808,0.8546,0.6302,0.6287,0.6353,0.627,0.7734,0.6292,0.5146,0.6306,0.6445,0.7919,0.5884,0.774,0.5811,0.5985,0.7152,0.5764,0.7101,0.5904,0.5757,0.7268,0.4038,0.7481683492660522,0.637512743473053,1.298,0.6154,0.5985,0.6191,0.6253,0.7724
190,0.6524,0.3645,0.6585,0.6813,0.8538,0.6298,0.6292,0.6341,0.6274,0.7724,0.6286,0.5144,0.6302,0.6442,0.7907,0.5879,0.7755,0.5802,0.5984,0.7143,0.5783,0.7072,0.5912,0.5777,0.7287,0.3905,0.7430593967437744,0.640840470790863,1.3046,0.6154,0.5982,0.6188,0.6258,0.772
191,0.6504,0.37,0.6574,0.682,0.8496,0.6308,0.6321,0.6318,0.6308,0.7697,0.6259,0.5208,0.6283,0.6433,0.7862,0.5855,0.7749,0.5768,0.5984,0.7097,0.5721,0.7165,0.5864,0.5724,0.7196,0.3878,0.7415319085121155,0.6421831250190735,1.3112,0.6129,0.6029,0.6161,0.6254,0.767
192,0.6534,0.3624,0.6586,0.6805,0.8563,0.6298,0.6265,0.6364,0.6258,0.7743,0.6286,0.5126,0.6298,0.6426,0.792,0.5916,0.7731,0.5861,0.5994,0.7197,0.5815,0.7007,0.5952,0.5799,0.7344,0.3943,0.744147002696991,0.6401801109313965,1.3179,0.617,0.5951,0.6212,0.6256,0.7753
193,0.6513,0.3662,0.6579,0.6815,0.8517,0.6308,0.6313,0.6314,0.6313,0.7695,0.6281,0.5152,0.6299,0.6441,0.7897,0.5847,0.7766,0.5757,0.598,0.7088,0.5758,0.7107,0.5888,0.5759,0.7246,0.3921,0.7449807524681091,0.6392185091972351,1.3246,0.6141,0.6,0.6167,0.6262,0.7689
194,0.6501,0.3674,0.6581,0.6836,0.8482,0.6298,0.6301,0.6307,0.6301,0.7695,0.6256,0.5179,0.6286,0.6445,0.7846,0.5855,0.7754,0.5762,0.5995,0.7087,0.574,0.7113,0.5863,0.5745,0.722,0.429,0.7436516284942627,0.6399526596069336,1.3319,0.613,0.6004,0.616,0.6264,0.7666
195,0.6503,0.367,0.6581,0.6828,0.849,0.6293,0.6307,0.6299,0.6301,0.7689,0.6262,0.5172,0.6289,0.6443,0.7859,0.5861,0.7762,0.5765,0.6008,0.7084,0.5748,0.7099,0.5867,0.5753,0.7231,0.3971,0.7451047301292419,0.6397252678871155,1.3386,0.6133,0.6002,0.616,0.6267,0.7671
196,0.6503,0.3678,0.6574,0.6805,0.8507,0.6311,0.6315,0.6313,0.6321,0.7694,0.6269,0.5176,0.6291,0.6439,0.7874,0.5844,0.7771,0.5745,0.6003,0.7064,0.5735,0.7136,0.5858,0.5742,0.7209,0.3962,0.7455394864082336,0.6386958360671997,1.3453,0.6132,0.6015,0.6156,0.6262,0.767
197,0.6512,0.3644,0.6583,0.6816,0.8516,0.6307,0.6303,0.6317,0.6313,0.7698,0.6283,0.5135,0.6301,0.6448,0.7893,0.5859,0.7781,0.5765,0.6002,0.7092,0.5781,0.7054,0.5892,0.5783,0.7272,0.3899,0.7449725270271301,0.6382948160171509,1.352,0.6148,0.5983,0.6172,0.6272,0.7694
198,0.6509,0.363,0.6584,0.6815,0.8514,0.6302,0.6289,0.6328,0.6297,0.7702,0.6277,0.5134,0.6298,0.6449,0.7878,0.5855,0.7776,0.5764,0.5994,0.709,0.5793,0.7014,0.5898,0.5792,0.7298,0.3975,0.7425147891044617,0.6409881114959717,1.3588,0.6147,0.5969,0.6174,0.6269,0.7696
199,0.6529,0.3624,0.6584,0.6803,0.8557,0.6317,0.6277,0.6349,0.6301,0.7721,0.6292,0.5119,0.6305,0.6439,0.7927,0.5882,0.7733,0.5801,0.5998,0.713,0.5779,0.7053,0.5905,0.5774,0.7284,0.39,0.7459272742271423,0.6383925676345825,1.3654,0.616,0.5961,0.6189,0.6263,0.7724
200,0.6547,0.3616,0.6589,0.6797,0.8594,0.6318,0.6256,0.6384,0.628,0.7742,0.6291,0.5126,0.63,0.6421,0.7942,0.5889,0.7701,0.5814,0.5999,0.7144,0.5787,0.7052,0.5923,0.5776,0.7302,0.3962,0.7509373426437378,0.6378299593925476,1.3722,0.6166,0.595,0.6202,0.6255,0.7745
201,0.6505,0.3665,0.6574,0.6803,0.8512,0.6321,0.6292,0.634,0.6317,0.7711,0.6262,0.5181,0.6286,0.6438,0.7866,0.5867,0.7736,0.5772,0.6011,0.7092,0.5751,0.711,0.5876,0.5754,0.723,0.3953,0.7450302243232727,0.6399766206741333,1.3789,0.6141,0.5997,0.617,0.6265,0.7682
202,0.6506,0.3648,0.6576,0.6804,0.8515,0.6315,0.6283,0.6337,0.6309,0.7708,0.6264,0.5166,0.6288,0.644,0.7865,0.5855,0.7735,0.5762,0.5996,0.7085,0.5755,0.7089,0.5875,0.5759,0.7237,0.3925,0.7439886331558228,0.63894122838974,1.3855,0.6139,0.5984,0.6168,0.6262,0.7682
203,0.6497,0.3675,0.6574,0.6818,0.8487,0.63,0.631,0.6292,0.6318,0.7678,0.6252,0.5183,0.6281,0.6438,0.7844,0.5868,0.7742,0.5773,0.6012,0.7086,0.5735,0.7123,0.5863,0.5746,0.7197,0.3943,0.7385614514350891,0.6421551704406738,1.3922,0.613,0.6007,0.6157,0.6266,0.7658
204,0.6527,0.3606,0.6584,0.6794,0.8561,0.632,0.6279,0.6347,0.6313,0.771,0.6294,0.5109,0.6306,0.6441,0.7922,0.5862,0.7759,0.5769,0.6007,0.7087,0.5792,0.7024,0.5901,0.579,0.7293,0.3891,0.7429420948028564,0.6406608819961548,1.3989,0.6159,0.5955,0.6181,0.6269,0.7715
205,0.6528,0.3625,0.658,0.6798,0.8557,0.6331,0.6268,0.6358,0.6317,0.7726,0.629,0.5123,0.6303,0.6439,0.7922,0.5887,0.7717,0.5804,0.6005,0.7132,0.577,0.7073,0.5903,0.5767,0.7267,0.3911,0.7399162650108337,0.6422349810600281,1.4056,0.6161,0.5961,0.619,0.6265,0.7721
206,0.6517,0.3638,0.6577,0.6797,0.8541,0.6324,0.6287,0.6338,0.6323,0.7712,0.6282,0.5132,0.6298,0.6436,0.7909,0.5888,0.7744,0.5799,0.6019,0.7115,0.578,0.7059,0.59,0.5782,0.7266,0.3909,0.7452855110168457,0.6371676325798035,1.4122,0.6158,0.5972,0.6182,0.6271,0.7709
207,0.6528,0.3626,0.6582,0.6796,0.856,0.6328,0.6276,0.6353,0.632,0.7719,0.629,0.5129,0.6303,0.6439,0.7919,0.5864,0.7736,0.5769,0.6012,0.7091,0.5772,0.7067,0.5887,0.5773,0.7263,0.3932,0.7424841523170471,0.6388494372367859,1.4189,0.6156,0.5967,0.6179,0.6268,0.771
208,0.6518,0.3632,0.6578,0.6793,0.8545,0.6327,0.6299,0.6328,0.6339,0.77,0.6292,0.5124,0.6305,0.6444,0.7919,0.5843,0.7757,0.574,0.6013,0.7054,0.5767,0.7087,0.5882,0.5775,0.7242,0.393,0.7417837381362915,0.6419277191162109,1.4256,0.6149,0.598,0.6167,0.6273,0.7692
209,0.6522,0.3618,0.6581,0.6794,0.8552,0.6319,0.6283,0.6333,0.632,0.7704,0.6291,0.5115,0.6305,0.6442,0.792,0.5865,0.7741,0.5767,0.6018,0.708,0.5782,0.7057,0.5894,0.5787,0.7263,0.3978,0.7410300970077515,0.6420713663101196,1.4323,0.6156,0.5963,0.6176,0.6272,0.7704
210,0.6513,0.3647,0.6574,0.6793,0.8535,0.6326,0.6294,0.6326,0.6338,0.77,0.6277,0.515,0.6295,0.6436,0.79,0.5859,0.7738,0.5753,0.6034,0.7065,0.5742,0.7121,0.5864,0.5751,0.721,0.3926,0.7432911396026611,0.6402319669723511,1.439,0.6143,0.599,0.6162,0.627,0.7682
211,0.6514,0.3637,0.6575,0.6792,0.8538,0.6316,0.6281,0.6327,0.6321,0.7701,0.6273,0.5151,0.6291,0.643,0.7894,0.5853,0.7733,0.5748,0.6028,0.7057,0.5758,0.7087,0.5871,0.5765,0.7234,0.3925,0.7446911931037903,0.6410180330276489,1.4457,0.6143,0.5978,0.6162,0.6267,0.7685
212,0.6528,0.3603,0.6588,0.6798,0.8561,0.6323,0.627,0.6351,0.6317,0.7714,0.6294,0.5101,0.6307,0.6443,0.7921,0.5864,0.7756,0.5768,0.6016,0.7079,0.5807,0.6986,0.5906,0.5808,0.7306,0.39,0.7423121333122253,0.6409222483634949,1.4523,0.6163,0.5943,0.6184,0.6276,0.7716
213,0.6498,0.3652,0.6576,0.6805,0.8501,0.631,0.6306,0.6297,0.634,0.7675,0.6272,0.515,0.6295,0.6448,0.787,0.5849,0.7772,0.5738,0.6046,0.7028,0.5752,0.7078,0.5853,0.5767,0.7218,0.4032,0.7441731691360474,0.6395696401596069,1.4591,0.6136,0.5992,0.6152,0.6281,0.7658
214,0.6512,0.3631,0.658,0.6802,0.8529,0.6307,0.6306,0.6295,0.6334,0.7674,0.6287,0.5123,0.6303,0.6443,0.7906,0.5851,0.7768,0.5743,0.6034,0.7037,0.5769,0.7048,0.5873,0.5781,0.7245,0.3865,0.7400859594345093,0.6426758766174316,1.4657,0.6145,0.5975,0.6159,0.6279,0.7678
215,0.6518,0.362,0.6582,0.6797,0.8543,0.6324,0.6288,0.6324,0.6342,0.7693,0.6294,0.5113,0.6308,0.645,0.7913,0.5842,0.7761,0.5731,0.604,0.703,0.5755,0.7066,0.5854,0.5768,0.7229,0.391,0.7416715025901794,0.6409761309623718,1.4724,0.6147,0.597,0.616,0.6279,0.7682
216,0.6509,0.3638,0.6575,0.6798,0.8524,0.632,0.6295,0.6312,0.6342,0.7689,0.6276,0.5134,0.6295,0.6437,0.7893,0.5855,0.775,0.5746,0.6045,0.7048,0.575,0.7087,0.586,0.5764,0.7217,0.3928,0.7376784682273865,0.6436454653739929,1.479,0.6142,0.5981,0.6158,0.6277,0.7674
217,0.653,0.3595,0.6584,0.679,0.857,0.6324,0.628,0.6333,0.6333,0.7701,0.6303,0.5083,0.6311,0.644,0.7943,0.5883,0.7763,0.5782,0.6042,0.7088,0.5798,0.6995,0.5896,0.5803,0.7294,0.3933,0.7421296238899231,0.641299307346344,1.4857,0.6168,0.5943,0.6181,0.6282,0.7719
218,0.6507,0.3632,0.6577,0.6802,0.8518,0.6312,0.6286,0.6303,0.6335,0.7681,0.6275,0.5124,0.6295,0.6439,0.7889,0.5876,0.774,0.5772,0.6046,0.7072,0.5756,0.7062,0.5862,0.5768,0.7227,0.3925,0.7390602827072144,0.6431047916412354,1.4924,0.6145,0.5969,0.6162,0.6278,0.7677
219,0.6535,0.36,0.6584,0.679,0.8579,0.6336,0.6266,0.6347,0.6337,0.7712,0.6305,0.5081,0.6312,0.6439,0.7956,0.5876,0.7729,0.5773,0.6042,0.7078,0.5775,0.7038,0.5884,0.578,0.7262,0.3929,0.7376790046691895,0.643182635307312,1.499,0.6165,0.5943,0.618,0.6278,0.7717
220,0.6536,0.3597,0.6586,0.6787,0.8584,0.6341,0.6257,0.6359,0.634,0.772,0.6307,0.5079,0.6313,0.6439,0.7957,0.5872,0.7735,0.5766,0.6049,0.7073,0.5783,0.7026,0.5884,0.5787,0.7274,0.3988,0.7435895204544067,0.6394040584564209,1.5058,0.6168,0.5939,0.6182,0.628,0.7722
221,0.6524,0.3615,0.6582,0.6796,0.8555,0.6325,0.6269,0.6324,0.6341,0.7695,0.6294,0.5096,0.6306,0.6437,0.7931,0.5845,0.7735,0.5735,0.6039,0.7039,0.5759,0.7057,0.5863,0.5771,0.7233,0.3936,0.7399705052375793,0.6442599296569824,1.5125,0.6149,0.5954,0.6162,0.6277,0.7691
222,0.6516,0.3624,0.658,0.6793,0.8543,0.6322,0.6274,0.6315,0.6348,0.769,0.6292,0.5101,0.6305,0.6437,0.7925,0.5841,0.7743,0.5728,0.6049,0.7027,0.5754,0.707,0.5854,0.577,0.7217,0.3936,0.7426034808158875,0.6426798701286316,1.5192,0.6145,0.5962,0.6156,0.6279,0.768
223,0.653,0.3606,0.6583,0.6785,0.8574,0.6336,0.6254,0.6352,0.634,0.7716,0.6295,0.509,0.6305,0.6429,0.7946,0.5857,0.7728,0.575,0.6035,0.7062,0.5771,0.7029,0.5871,0.578,0.7254,0.3896,0.7416717410087585,0.6420215368270874,1.5258,0.6158,0.5941,0.6172,0.6274,0.771
224,0.6513,0.3629,0.6577,0.6789,0.8541,0.6318,0.6281,0.6307,0.6348,0.7682,0.6284,0.5112,0.6299,0.6432,0.7917,0.5842,0.7747,0.5731,0.6047,0.703,0.5753,0.7076,0.5855,0.577,0.7214,0.3919,0.7378940582275391,0.6458519697189331,1.5324,0.6142,0.5969,0.6154,0.6277,0.7677
225,0.6543,0.3588,0.6583,0.6779,0.8603,0.6341,0.6261,0.6345,0.6348,0.7714,0.6321,0.5052,0.6321,0.6431,0.8001,0.588,0.7719,0.5776,0.605,0.708,0.5783,0.7025,0.5897,0.5789,0.727,0.3918,0.7413733005523682,0.6429731249809265,1.5391,0.6174,0.5929,0.6184,0.6279,0.7734
226,0.6517,0.361,0.6582,0.6793,0.8545,0.6311,0.6279,0.6297,0.6344,0.7676,0.6297,0.5082,0.6308,0.6438,0.7935,0.5835,0.7756,0.5722,0.6046,0.702,0.577,0.7038,0.5865,0.5788,0.7236,0.3932,0.738910436630249,0.6426100730895996,1.5458,0.6146,0.5953,0.6155,0.6282,0.7682
227,0.6503,0.3638,0.6577,0.6804,0.8511,0.6307,0.6282,0.6281,0.6354,0.7661,0.6276,0.5116,0.6297,0.6436,0.7903,0.5843,0.7732,0.5728,0.6072,0.7012,0.5728,0.7122,0.5833,0.5754,0.7163,0.3938,0.7374902963638306,0.6430689096450806,1.5525,0.6131,0.5978,0.6143,0.6284,0.765
228,0.6546,0.3562,0.6587,0.6773,0.8616,0.6345,0.6228,0.6377,0.6334,0.7729,0.6318,0.5037,0.6319,0.6429,0.7998,0.5876,0.7708,0.5772,0.6043,0.709,0.5791,0.6993,0.5887,0.5796,0.7283,0.3995,0.7409583330154419,0.6422150135040283,1.5592,0.6175,0.5906,0.6188,0.6275,0.7743
229,0.6504,0.3632,0.6577,0.6799,0.8517,0.6307,0.6278,0.6286,0.6346,0.7671,0.6274,0.5099,0.6294,0.6429,0.7905,0.5853,0.7748,0.5744,0.6057,0.7037,0.5756,0.7067,0.5857,0.5779,0.7206,0.3872,0.7366795539855957,0.6437910795211792,1.5658,0.6139,0.5965,0.6152,0.6282,0.7667
230,0.655,0.3524,0.6586,0.6748,0.865,0.6334,0.62,0.6397,0.6301,0.7748,0.6343,0.4983,0.6338,0.6437,0.8047,0.5919,0.7699,0.5827,0.6056,0.7136,0.5834,0.6907,0.5928,0.5828,0.7362,0.4008,0.7380791902542114,0.6446649432182312,1.5726,0.6196,0.5863,0.6215,0.6274,0.7789
231,0.6542,0.3567,0.6584,0.6771,0.861,0.6347,0.6212,0.6377,0.6333,0.7739,0.6319,0.5026,0.6321,0.6432,0.8007,0.5911,0.7681,0.5814,0.6056,0.713,0.5785,0.699,0.589,0.579,0.7276,0.3872,0.737186074256897,0.6460913419723511,1.5792,0.6181,0.5895,0.6197,0.6276,0.7752
232,0.6537,0.3588,0.6581,0.677,0.8602,0.6341,0.623,0.6352,0.6344,0.7722,0.6318,0.5043,0.6321,0.6433,0.8,0.5875,0.7694,0.5772,0.6046,0.709,0.5758,0.7043,0.5865,0.5769,0.7235,0.3986,0.7399949431419373,0.6416783928871155,1.586,0.6166,0.592,0.6178,0.6272,0.773
233,0.6499,0.3647,0.6571,0.6781,0.8523,0.6319,0.6277,0.6287,0.6378,0.7665,0.6278,0.5104,0.6298,0.6429,0.7921,0.5822,0.7747,0.5705,0.6082,0.6978,0.5722,0.7131,0.5823,0.5753,0.7149,0.3905,0.7409488558769226,0.6408783793449402,1.5926,0.6128,0.5981,0.6137,0.6285,0.7647
234,0.6528,0.3603,0.6574,0.6758,0.8596,0.6338,0.6243,0.6337,0.6352,0.7711,0.631,0.5052,0.6314,0.6422,0.7996,0.5857,0.7711,0.5748,0.6058,0.7051,0.5753,0.7058,0.5863,0.5766,0.7223,0.3912,0.7399190664291382,0.6429432034492493,1.5992,0.6157,0.5933,0.6167,0.6271,0.7715
235,0.6517,0.3611,0.6578,0.6779,0.8557,0.6325,0.6255,0.6309,0.636,0.7686,0.6302,0.5056,0.6313,0.6436,0.796,0.5851,0.7738,0.5741,0.6057,0.7039,0.576,0.704,0.5857,0.5781,0.7218,0.3936,0.7394652366638184,0.6434499621391296,1.6059,0.6151,0.594,0.616,0.6283,0.7692
236,0.6521,0.36,0.6571,0.6753,0.8587,0.6333,0.6229,0.6335,0.6346,0.7713,0.6311,0.5051,0.6317,0.6434,0.7982,0.5872,0.7693,0.5764,0.6065,0.7071,0.5747,0.7057,0.5852,0.5763,0.7213,0.389,0.7385820150375366,0.6435936093330383,1.6126,0.6157,0.5926,0.6168,0.6272,0.7713
237,0.6503,0.3648,0.6569,0.6778,0.8532,0.6338,0.6249,0.6313,0.638,0.769,0.6271,0.5107,0.6292,0.6419,0.7923,0.5869,0.7697,0.5758,0.6094,0.7036,0.5695,0.7156,0.581,0.5724,0.7117,0.3895,0.7374598383903503,0.6443856358528137,1.6192,0.6135,0.5971,0.6148,0.6279,0.766
238,0.6503,0.365,0.657,0.6779,0.8532,0.6323,0.6271,0.6286,0.6383,0.7667,0.6281,0.5096,0.6299,0.6425,0.7935,0.585,0.7731,0.5736,0.6099,0.6998,0.5703,0.7144,0.5816,0.5734,0.7125,0.3912,0.7359545230865479,0.6441003084182739,1.6258,0.6132,0.5978,0.6141,0.6284,0.7651
239,0.6517,0.3596,0.657,0.6753,0.858,0.6336,0.6218,0.6335,0.6354,0.7709,0.6305,0.5049,0.6312,0.6423,0.7983,0.5869,0.7681,0.5756,0.6081,0.7056,0.5732,0.7072,0.5838,0.5749,0.7193,0.3894,0.7342153787612915,0.6474320292472839,1.6325,0.6152,0.5923,0.6162,0.6272,0.7704
240,0.6522,0.357,0.6574,0.675,0.8594,0.6335,0.6217,0.6337,0.6352,0.7708,0.6325,0.5018,0.6328,0.6436,0.8011,0.5852,0.7703,0.574,0.6055,0.705,0.5767,0.7003,0.5858,0.5781,0.7246,0.3931,0.7336196899414062,0.6472165584564209,1.6391,0.616,0.5902,0.6167,0.6275,0.7722
241,0.6528,0.3568,0.6572,0.6738,0.8616,0.6339,0.6217,0.6343,0.6353,0.7717,0.634,0.5008,0.6339,0.6443,0.8038,0.5844,0.7711,0.573,0.6059,0.7035,0.5765,0.7014,0.586,0.5778,0.7246,0.3931,0.735846757888794,0.6439905762672424,1.6458,0.6163,0.5904,0.6169,0.6274,0.773
242,0.6512,0.3608,0.657,0.6758,0.8568,0.6322,0.6225,0.6311,0.6351,0.7695,0.6299,0.5053,0.631,0.6425,0.7966,0.587,0.7697,0.576,0.6079,0.7053,0.5742,0.7049,0.5842,0.5764,0.7197,0.3908,0.7387244701385498,0.6431766152381897,1.6524,0.6149,0.5926,0.6159,0.6275,0.7696
243,0.6508,0.3599,0.6569,0.6751,0.8567,0.6326,0.6213,0.6325,0.6348,0.7703,0.6301,0.505,0.6313,0.6428,0.7967,0.5867,0.7689,0.5757,0.6073,0.7059,0.5745,0.7025,0.5836,0.5766,0.7205,0.3972,0.7329214811325073,0.6462090611457825,1.6592,0.6149,0.5915,0.616,0.6273,0.77
244,0.651,0.3604,0.6566,0.6738,0.8583,0.6335,0.623,0.6315,0.6376,0.7689,0.6312,0.5046,0.6319,0.6428,0.7995,0.5863,0.7705,0.5751,0.609,0.7035,0.5729,0.7083,0.583,0.5754,0.7175,0.3893,0.7361248135566711,0.6456344723701477,1.6658,0.615,0.5934,0.6156,0.6277,0.7695
245,0.6539,0.3535,0.6573,0.672,0.8658,0.634,0.619,0.6362,0.634,0.7731,0.635,0.4971,0.6345,0.6431,0.8079,0.587,0.7689,0.5761,0.6061,0.7074,0.5779,0.6971,0.5868,0.5789,0.7277,0.3888,0.7346823215484619,0.6458898782730103,1.6724,0.6176,0.5871,0.6182,0.6268,0.7764
246,0.6507,0.3608,0.6563,0.6735,0.8579,0.6336,0.6234,0.6309,0.6385,0.7684,0.6314,0.504,0.6321,0.643,0.8,0.5844,0.7706,0.5734,0.6093,0.699,0.5712,0.7115,0.582,0.5743,0.7144,0.3899,0.7360464334487915,0.6459357738494873,1.679,0.6143,0.5941,0.6149,0.6277,0.7679
247,0.6508,0.3577,0.6567,0.6733,0.8583,0.6328,0.6218,0.6322,0.636,0.7701,0.6317,0.5011,0.6326,0.6433,0.7999,0.5852,0.7734,0.5735,0.6089,0.7012,0.5754,0.6998,0.5836,0.5776,0.7225,0.3921,0.7373432517051697,0.6448404788970947,1.6857,0.6152,0.5908,0.6157,0.6278,0.7704
248,0.6505,0.36,0.6567,0.6733,0.858,0.6323,0.622,0.6317,0.6356,0.7696,0.6306,0.5037,0.6319,0.6428,0.7982,0.5855,0.7731,0.5737,0.6102,0.7007,0.5741,0.7023,0.5825,0.5765,0.7206,0.394,0.7406764626502991,0.6432105302810669,1.6924,0.6146,0.5922,0.6153,0.6277,0.7694
249,0.6498,0.3625,0.6563,0.6742,0.8555,0.6318,0.6226,0.6295,0.6367,0.7677,0.6294,0.5068,0.6311,0.6425,0.796,0.5839,0.7713,0.5726,0.6091,0.699,0.5715,0.7093,0.5812,0.5747,0.7146,0.3935,0.737186074256897,0.645756185054779,1.6991,0.6133,0.5945,0.6141,0.6274,0.7666
250,0.6477,0.3691,0.6553,0.6757,0.8501,0.632,0.6252,0.6268,0.6405,0.7651,0.6257,0.5132,0.6285,0.6407,0.7907,0.581,0.7694,0.5714,0.6075,0.6939,0.564,0.7236,0.5773,0.5683,0.7027,0.3907,0.7365168929100037,0.6460813879966736,1.7057,0.6101,0.6001,0.6119,0.6265,0.7605
251,0.6483,0.3652,0.6559,0.6751,0.8521,0.6317,0.6231,0.628,0.638,0.7669,0.6275,0.5089,0.63,0.6419,0.7929,0.5828,0.7714,0.5723,0.6081,0.6975,0.5693,0.7117,0.5801,0.573,0.7112,0.3962,0.7362275123596191,0.6445571780204773,1.7124,0.6119,0.5961,0.6133,0.6272,0.7641
252,0.6513,0.359,0.6563,0.6726,0.8599,0.6335,0.6184,0.6333,0.6355,0.7713,0.6312,0.5025,0.632,0.6419,0.801,0.5891,0.7665,0.5786,0.6096,0.7064,0.5718,0.7048,0.5821,0.5739,0.718,0.3921,0.7362392544746399,0.6463447213172913,1.7191,0.6154,0.5902,0.6165,0.6267,0.7713
253,0.6503,0.3597,0.6563,0.6734,0.8573,0.6319,0.6194,0.6302,0.6359,0.769,0.6305,0.5028,0.6318,0.6423,0.7989,0.5866,0.7686,0.5756,0.6102,0.7013,0.571,0.7068,0.5808,0.574,0.7153,0.3967,0.7288586497306824,0.6482479572296143,1.7258,0.6141,0.5915,0.6149,0.6272,0.7684
254,0.651,0.3569,0.6552,0.6684,0.8638,0.633,0.6169,0.6338,0.6344,0.7723,0.633,0.5004,0.6334,0.6426,0.8049,0.5885,0.7672,0.577,0.6113,0.704,0.5707,0.7048,0.5803,0.5726,0.7182,0.3889,0.7369699478149414,0.6445671319961548,1.7324,0.6152,0.5892,0.6159,0.6259,0.7726
255,0.6512,0.3585,0.6556,0.6697,0.8629,0.6338,0.6174,0.6336,0.6362,0.7718,0.6323,0.5014,0.633,0.6422,0.8036,0.587,0.7677,0.5758,0.6102,0.7017,0.5704,0.7054,0.5801,0.5725,0.7173,0.3936,0.737422525882721,0.6476574540138245,1.7391,0.6149,0.5901,0.6156,0.6262,0.7715
256,0.6512,0.3592,0.6551,0.6686,0.864,0.6344,0.6172,0.6336,0.6371,0.7719,0.6327,0.5012,0.6331,0.642,0.8051,0.586,0.7672,0.5749,0.6096,0.7008,0.5694,0.7076,0.58,0.5716,0.7157,0.3958,0.7403336763381958,0.6448444724082947,1.7458,0.6147,0.5905,0.6153,0.6258,0.7715
257,0.6474,0.3649,0.6556,0.6739,0.8516,0.6299,0.6236,0.6248,0.64,0.7636,0.63,0.5067,0.6325,0.6451,0.7945,0.5771,0.7746,0.5676,0.6067,0.6847,0.5656,0.7144,0.5765,0.5703,0.7057,0.3938,0.7340011596679688,0.647104799747467,1.7525,0.61,0.5968,0.6114,0.6272,0.76
258,0.6502,0.3599,0.6554,0.6707,0.8598,0.6316,0.6188,0.6288,0.6368,0.7686,0.6321,0.5011,0.6331,0.6429,0.8027,0.5842,0.7695,0.5737,0.6085,0.6965,0.5688,0.7077,0.5792,0.5718,0.7134,0.3887,0.7359609007835388,0.6454150676727295,1.7591,0.6134,0.5914,0.614,0.6261,0.7682
259,0.6514,0.3571,0.6551,0.6673,0.8659,0.6339,0.614,0.6353,0.6349,0.7737,0.6334,0.4995,0.6339,0.643,0.8061,0.591,0.7638,0.5803,0.6105,0.7075,0.5708,0.7029,0.5801,0.5727,0.7185,0.3901,0.7369492650032043,0.6425621509552002,1.7658,0.6161,0.5875,0.6169,0.6257,0.7743
260,0.6476,0.3639,0.6547,0.671,0.8544,0.6304,0.6193,0.6266,0.638,0.7664,0.6304,0.5053,0.6327,0.6443,0.7972,0.5845,0.7698,0.5748,0.6087,0.6964,0.5661,0.7115,0.5766,0.5698,0.7086,0.3929,0.7366888523101807,0.6444135308265686,1.7725,0.6118,0.594,0.6131,0.6264,0.7646
261,0.6454,0.368,0.655,0.6741,0.8478,0.629,0.6216,0.6237,0.6401,0.7627,0.6268,0.5099,0.6314,0.6451,0.7887,0.5815,0.7724,0.5724,0.6101,0.6886,0.5633,0.7173,0.5743,0.5683,0.7023,0.395,0.7389498949050903,0.643852949142456,1.7792,0.6092,0.5978,0.6114,0.6275,0.758
262,0.6488,0.361,0.6546,0.6687,0.8591,0.6323,0.6155,0.6302,0.6372,0.77,0.6319,0.5016,0.6337,0.6444,0.8015,0.5864,0.766,0.5764,0.6087,0.7002,0.5665,0.7071,0.5766,0.5695,0.7114,0.3892,0.7313231229782104,0.6467556953430176,1.7858,0.6132,0.5902,0.6143,0.6257,0.7684
263,0.6507,0.3566,0.6546,0.6658,0.8662,0.6329,0.6109,0.6337,0.6346,0.7738,0.634,0.4963,0.6348,0.6436,0.8084,0.5937,0.7604,0.5832,0.6126,0.71,0.5703,0.7004,0.5792,0.5723,0.7186,0.3937,0.735670804977417,0.6441781520843506,1.7925,0.6163,0.5849,0.6171,0.6258,0.7754
264,0.6483,0.3623,0.6541,0.6684,0.8583,0.6326,0.6132,0.6298,0.6379,0.7703,0.6313,0.5015,0.6334,0.6439,0.8017,0.5889,0.7607,0.5789,0.6117,0.7018,0.5638,0.7118,0.5754,0.5667,0.7081,0.3921,0.7306482791900635,0.6465681791305542,1.7992,0.613,0.5899,0.6143,0.6257,0.768
265,0.6491,0.3606,0.6545,0.6684,0.86,0.632,0.6124,0.6295,0.6368,0.7708,0.6326,0.4982,0.6344,0.6444,0.8046,0.5889,0.7629,0.58,0.6082,0.7032,0.5671,0.7064,0.5779,0.57,0.7121,0.3919,0.7330395579338074,0.645710289478302,1.8058,0.6139,0.5881,0.6153,0.6256,0.7701
266,0.6501,0.3583,0.6542,0.6659,0.8648,0.6325,0.6116,0.6304,0.6369,0.7719,0.6344,0.4946,0.6354,0.6441,0.8092,0.5897,0.7624,0.5809,0.6087,0.7043,0.5685,0.7043,0.579,0.5711,0.7147,0.3962,0.7342747449874878,0.6436015963554382,1.8126,0.615,0.5862,0.616,0.6253,0.773
267,0.6479,0.3634,0.6542,0.6691,0.8569,0.6312,0.6145,0.6265,0.6392,0.7676,0.6315,0.4992,0.6342,0.6453,0.8017,0.5878,0.7645,0.5807,0.6097,0.6975,0.5634,0.7134,0.5757,0.5673,0.7049,0.3901,0.7303940653800964,0.64817214012146,1.8192,0.6124,0.591,0.6143,0.6261,0.7657
268,0.6461,0.3641,0.6541,0.6695,0.8531,0.6303,0.6159,0.625,0.6406,0.7657,0.6303,0.4996,0.6345,0.6469,0.7977,0.5854,0.7682,0.5789,0.6095,0.6927,0.5645,0.7112,0.5758,0.5692,0.705,0.3985,0.7348361611366272,0.6433242559432983,1.826,0.6113,0.5918,0.6137,0.6271,0.7628
269,0.6503,0.3562,0.6541,0.6652,0.8661,0.6328,0.6072,0.6309,0.6371,0.773,0.6349,0.4916,0.6361,0.6448,0.8103,0.5955,0.7561,0.5877,0.6131,0.7099,0.5658,0.708,0.5769,0.5684,0.7117,0.3936,0.7320642471313477,0.6458080410957336,1.8327,0.6159,0.5838,0.6171,0.6257,0.7742
270,0.6478,0.3581,0.654,0.6666,0.8592,0.6305,0.6081,0.6278,0.6366,0.7703,0.6322,0.4934,0.6356,0.6464,0.8026,0.5935,0.7585,0.5861,0.6119,0.705,0.5667,0.7042,0.5766,0.57,0.7117,0.3948,0.7332679033279419,0.6456683874130249,1.8394,0.6141,0.5845,0.616,0.6263,0.7698
271,0.6447,0.3644,0.6532,0.6685,0.8512,0.6302,0.6126,0.6244,0.6411,0.7655,0.6298,0.4976,0.635,0.6477,0.7968,0.5877,0.7638,0.5834,0.609,0.6956,0.562,0.7147,0.5747,0.5668,0.7011,0.3931,0.7280991673469543,0.6463906168937683,1.8461,0.6109,0.5906,0.6141,0.6266,0.762
272,0.6443,0.3633,0.6534,0.6684,0.8506,0.6299,0.6106,0.6247,0.6401,0.7663,0.6294,0.497,0.6353,0.6487,0.7951,0.5897,0.7615,0.5844,0.6108,0.697,0.5634,0.7102,0.575,0.5679,0.7042,0.39,0.7289963960647583,0.6459277868270874,1.8527,0.6113,0.5885,0.6146,0.6272,0.7626
273,0.6492,0.3536,0.6535,0.6636,0.8655,0.6312,0.6028,0.6296,0.635,0.7735,0.6353,0.4863,0.6373,0.6465,0.8094,0.5971,0.7526,0.5913,0.6114,0.7115,0.5683,0.6982,0.5785,0.5704,0.7168,0.3906,0.729240894317627,0.6466400027275085,1.8593,0.6162,0.5787,0.618,0.6254,0.7753
274,0.647,0.3575,0.6538,0.666,0.8582,0.6311,0.6055,0.6273,0.6385,0.7704,0.633,0.4899,0.6374,0.6497,0.8017,0.5941,0.7552,0.5886,0.6119,0.7039,0.5665,0.7038,0.577,0.5699,0.711,0.4,0.7312843203544617,0.6444554328918457,1.8661,0.6143,0.5824,0.6168,0.6272,0.769
275,0.6451,0.3586,0.6532,0.6661,0.8544,0.6302,0.6056,0.6257,0.6391,0.7688,0.6312,0.4914,0.6369,0.6504,0.7975,0.5926,0.7578,0.5887,0.6108,0.7017,0.5652,0.7056,0.5762,0.5692,0.7082,0.3919,0.7251757979393005,0.6476315259933472,1.8728,0.6129,0.5838,0.6161,0.6271,0.7661
276,0.6464,0.3562,0.6533,0.6656,0.8574,0.6314,0.6031,0.6272,0.6393,0.7705,0.6327,0.4878,0.6376,0.6503,0.8011,0.5941,0.7533,0.5911,0.6097,0.7038,0.5658,0.704,0.577,0.5693,0.71,0.3957,0.7263102531433105,0.6470150351524353,1.8795,0.6141,0.5809,0.6172,0.6268,0.7686
277,0.6477,0.3519,0.6527,0.6623,0.8638,0.6318,0.6002,0.6287,0.6373,0.7733,0.6361,0.4816,0.6388,0.649,0.8098,0.5986,0.7483,0.5951,0.6115,0.7109,0.5673,0.698,0.5782,0.5695,0.7159,0.3941,0.7310027480125427,0.6436993479728699,1.8862,0.6163,0.576,0.6187,0.6259,0.7747
278,0.643,0.3609,0.6527,0.6675,0.849,0.6296,0.6044,0.6239,0.6401,0.7674,0.629,0.4925,0.6368,0.6521,0.7932,0.5913,0.755,0.5896,0.6096,0.6982,0.5619,0.7095,0.5746,0.5661,0.7031,0.3941,0.7251156568527222,0.6466140747070312,1.8929,0.611,0.5845,0.6155,0.6271,0.7622
279,0.6449,0.3567,0.6529,0.6657,0.8543,0.6301,0.6025,0.625,0.6397,0.7691,0.6321,0.4877,0.6381,0.6519,0.7989,0.5937,0.7537,0.5909,0.6116,0.6998,0.5648,0.704,0.5761,0.5684,0.7087,0.3925,0.7296587228775024,0.644192099571228,1.8996,0.6131,0.5809,0.6166,0.6275,0.7662
280,0.6455,0.3549,0.653,0.665,0.8561,0.6305,0.5999,0.6264,0.6384,0.7705,0.6324,0.4865,0.638,0.6512,0.7994,0.5967,0.75,0.5934,0.613,0.7054,0.5656,0.7002,0.5763,0.5686,0.7114,0.3943,0.7298243641853333,0.6446130275726318,1.9063,0.6141,0.5783,0.6174,0.6272,0.7686
281,0.6454,0.3554,0.6529,0.6653,0.8556,0.6306,0.6003,0.6261,0.6389,0.7702,0.6322,0.4867,0.6381,0.6519,0.7987,0.5953,0.7526,0.5933,0.6117,0.7034,0.5644,0.7019,0.5756,0.5676,0.7093,0.3931,0.7294880747795105,0.6442918181419373,1.913,0.6136,0.5794,0.6172,0.6271,0.7674
282,0.643,0.362,0.6528,0.6686,0.8478,0.6285,0.6054,0.6219,0.6416,0.7653,0.6286,0.4918,0.6372,0.6526,0.792,0.586,0.7566,0.5876,0.6064,0.689,0.5585,0.7152,0.5728,0.5628,0.6979,0.396,0.7296620011329651,0.6456544399261475,1.9198,0.6089,0.5862,0.6145,0.6264,0.7584
283,0.6445,0.3558,0.6529,0.6664,0.8528,0.6296,0.599,0.6248,0.6386,0.7693,0.6303,0.4883,0.6376,0.6522,0.7946,0.5937,0.7523,0.5923,0.6102,0.7,0.564,0.7007,0.5754,0.5672,0.7089,0.387,0.7259058952331543,0.643976628780365,1.9264,0.6124,0.5792,0.6166,0.6269,0.7651
284,0.6445,0.3559,0.653,0.6667,0.8525,0.6294,0.5999,0.6242,0.639,0.7692,0.6303,0.4865,0.6377,0.6519,0.7951,0.5931,0.754,0.5928,0.6092,0.6994,0.5656,0.6973,0.5767,0.5688,0.7109,0.3951,0.7280224561691284,0.6437910795211792,1.9331,0.6126,0.5787,0.6169,0.6271,0.7654
285,0.6447,0.3535,0.6528,0.6654,0.8542,0.6301,0.5979,0.6254,0.6389,0.7703,0.631,0.4845,0.6379,0.6517,0.7961,0.5954,0.7518,0.5947,0.6104,0.7019,0.5665,0.6948,0.5771,0.5694,0.7133,0.3896,0.7216430902481079,0.6466180682182312,1.9397,0.6135,0.5765,0.6176,0.6272,0.7672
286,0.6424,0.359,0.653,0.6688,0.8467,0.6278,0.6019,0.6217,0.6406,0.7656,0.6266,0.4905,0.6364,0.652,0.7877,0.588,0.7574,0.5897,0.6075,0.6912,0.5632,0.7041,0.5755,0.5674,0.7052,0.3909,0.7272613644599915,0.6425741314888,1.9464,0.6096,0.5826,0.6153,0.6273,0.7593
287,0.6457,0.3537,0.6528,0.6659,0.8556,0.631,0.5981,0.6257,0.6399,0.7708,0.633,0.483,0.6385,0.6514,0.8004,0.5918,0.75,0.5936,0.606,0.6993,0.5648,0.6979,0.5772,0.5675,0.711,0.392,0.7264887094497681,0.6464365124702454,1.953,0.6133,0.5765,0.6176,0.6261,0.7674
288,0.6453,0.3534,0.653,0.6666,0.8541,0.6309,0.5979,0.6254,0.6403,0.7705,0.6321,0.4836,0.6384,0.6522,0.7978,0.5914,0.7498,0.5925,0.6071,0.6973,0.5646,0.6977,0.5768,0.5674,0.7104,0.4023,0.7232977151870728,0.6464065909385681,1.9598,0.6129,0.5765,0.6172,0.6267,0.766
289,0.6469,0.345,0.6523,0.6612,0.8632,0.6293,0.5904,0.6285,0.6322,0.7753,0.6351,0.4783,0.6391,0.6512,0.8029,0.5997,0.7437,0.5982,0.6089,0.7129,0.5715,0.6799,0.5797,0.5729,0.7249,0.3952,0.7290995717048645,0.6418678760528564,1.9666,0.6165,0.5675,0.6196,0.6253,0.7758
290,0.645,0.3528,0.6531,0.6665,0.8537,0.6285,0.597,0.6237,0.6371,0.7698,0.6306,0.4841,0.6377,0.6518,0.7947,0.5923,0.7526,0.5938,0.6067,0.6993,0.5672,0.6906,0.5783,0.57,0.7144,0.3926,0.7268010377883911,0.6441741585731506,1.9732,0.6127,0.5754,0.6173,0.6264,0.7664
291,0.6457,0.3504,0.653,0.6647,0.8568,0.6289,0.5965,0.6244,0.637,0.7704,0.633,0.481,0.6388,0.6523,0.7982,0.5914,0.7541,0.5929,0.6051,0.6992,0.5695,0.6864,0.5794,0.5721,0.7183,0.3893,0.7263069748878479,0.6450878381729126,1.9799,0.6137,0.5737,0.6177,0.6262,0.7686
292,0.646,0.3469,0.653,0.6636,0.8586,0.6286,0.5957,0.6243,0.6368,0.7704,0.6344,0.4771,0.6394,0.6517,0.8012,0.5949,0.7515,0.5942,0.6086,0.702,0.5718,0.6808,0.5804,0.5742,0.7224,0.3948,0.7204332947731018,0.6479926109313965,1.9866,0.6151,0.5704,0.6183,0.627,0.7709
293,0.6448,0.3526,0.653,0.6667,0.853,0.6305,0.5987,0.6245,0.6418,0.7686,0.632,0.4829,0.6388,0.6533,0.796,0.5869,0.7531,0.59,0.6045,0.69,0.5654,0.6974,0.5776,0.5688,0.71,0.3935,0.727133572101593,0.6452853679656982,1.9933,0.6119,0.5769,0.6168,0.627,0.7635
294,0.6462,0.348,0.6532,0.6654,0.857,0.6291,0.5943,0.6245,0.6372,0.7707,0.6329,0.4791,0.6386,0.6517,0.7982,0.5926,0.7487,0.5932,0.6077,0.6985,0.568,0.6871,0.5785,0.5705,0.7164,0.3969,0.7201933860778809,0.6474679112434387,2.0,0.6138,0.5714,0.6176,0.6265,0.7682
295,0.6446,0.3523,0.6532,0.6673,0.8522,0.6295,0.5976,0.6239,0.6401,0.7688,0.6295,0.4841,0.6374,0.6519,0.7918,0.5879,0.7543,0.5908,0.6043,0.6927,0.5681,0.6899,0.5792,0.5713,0.7142,0.3938,0.7277284264564514,0.6432105302810669,2.0067,0.6119,0.5756,0.6169,0.627,0.7639
296,0.6445,0.3519,0.6532,0.6673,0.8519,0.6287,0.597,0.6232,0.6394,0.7682,0.6292,0.4842,0.6372,0.6517,0.7911,0.5882,0.7536,0.5907,0.605,0.6924,0.5676,0.6902,0.5785,0.5708,0.7138,0.3955,0.7242936491966248,0.6465142965316772,2.0134,0.6116,0.5754,0.6166,0.6268,0.7635
297,0.6431,0.3547,0.653,0.6682,0.8485,0.6294,0.5989,0.623,0.6423,0.7668,0.6273,0.4864,0.6366,0.6516,0.7877,0.5864,0.7529,0.5894,0.6052,0.6887,0.5667,0.6942,0.5783,0.5704,0.7108,0.3907,0.724774956703186,0.6453851461410522,2.0201,0.6106,0.5774,0.6161,0.6275,0.7605
298,0.6449,0.3488,0.6532,0.6658,0.8541,0.6282,0.597,0.6229,0.6392,0.7675,0.6314,0.4797,0.638,0.6511,0.7953,0.5916,0.7517,0.5917,0.6095,0.6956,0.5708,0.6831,0.5799,0.5738,0.719,0.3963,0.7250429391860962,0.6438788771629333,2.0269,0.6134,0.5721,0.6171,0.6279,0.7663
299,0.6414,0.3582,0.6531,0.671,0.843,0.6273,0.6019,0.6204,0.6427,0.7635,0.6241,0.49,0.6358,0.6528,0.7804,0.5813,0.7579,0.5868,0.6023,0.6777,0.5645,0.6991,0.5774,0.5693,0.705,0.3876,0.7264184355735779,0.6441522240638733,2.0335,0.6077,0.5814,0.6147,0.6276,0.7539
300,0.6448,0.3526,0.6532,0.6681,0.8516,0.6306,0.5976,0.6245,0.6421,0.7689,0.6299,0.4839,0.6375,0.652,0.7921,0.5864,0.7518,0.5907,0.6033,0.6901,0.5655,0.6946,0.5779,0.5688,0.7102,0.3935,0.7216363549232483,0.6467896103858948,2.0402,0.6114,0.5761,0.6168,0.6269,0.7626
301,0.6466,0.3457,0.6528,0.6633,0.8599,0.6297,0.5938,0.6253,0.6381,0.7707,0.6346,0.4769,0.6394,0.6517,0.8009,0.594,0.7457,0.594,0.6096,0.7016,0.5704,0.6833,0.5798,0.5729,0.7197,0.3933,0.7254359126091003,0.6448524594306946,2.0469,0.6151,0.5691,0.6183,0.6271,0.7706
302,0.6464,0.349,0.6533,0.6663,0.8565,0.631,0.5968,0.6253,0.6411,0.7704,0.6332,0.4785,0.6388,0.6515,0.7988,0.5883,0.7512,0.5915,0.6045,0.6939,0.5688,0.686,0.58,0.5716,0.7164,0.3946,0.7256797552108765,0.6450479626655579,2.0536,0.6135,0.5723,0.6178,0.627,0.7672
303,0.6453,0.3498,0.6537,0.6679,0.8528,0.6298,0.5968,0.624,0.6412,0.7682,0.6306,0.4818,0.6381,0.6525,0.792,0.5879,0.7504,0.5894,0.6079,0.6897,0.5681,0.6878,0.5788,0.5715,0.7139,0.3867,0.721137285232544,0.6483955979347229,2.0601,0.6123,0.5733,0.6168,0.6282,0.7633
304,0.6468,0.3463,0.6534,0.6658,0.8578,0.6299,0.5943,0.6248,0.639,0.7708,0.6342,0.4766,0.6392,0.6516,0.7997,0.5907,0.7492,0.5927,0.6069,0.6966,0.5711,0.6809,0.5811,0.5737,0.7201,0.3974,0.7217625975608826,0.6457741260528564,2.0669,0.6145,0.5695,0.6182,0.6274,0.769
305,0.6433,0.3525,0.6534,0.6691,0.848,0.6283,0.5989,0.6218,0.6425,0.7655,0.6279,0.4843,0.6373,0.6528,0.7872,0.5843,0.7543,0.5884,0.6056,0.683,0.568,0.6902,0.5792,0.5723,0.7113,0.3906,0.7219883799552917,0.6457940936088562,2.0735,0.6104,0.576,0.616,0.6285,0.759
306,0.6444,0.3508,0.6535,0.6686,0.8504,0.6295,0.5971,0.6233,0.6421,0.7676,0.6302,0.4819,0.6381,0.6527,0.7914,0.5878,0.7505,0.5903,0.608,0.6887,0.5688,0.6864,0.5796,0.5724,0.7143,0.3935,0.7237816452980042,0.6464684009552002,2.0802,0.6121,0.5733,0.617,0.6288,0.7625
307,0.6459,0.3496,0.6536,0.6677,0.8541,0.6293,0.5942,0.624,0.6393,0.7694,0.6306,0.4824,0.6379,0.6522,0.7923,0.5895,0.7478,0.5915,0.6087,0.6913,0.567,0.6875,0.5779,0.57,0.7136,0.3934,0.7236059904098511,0.6457462310791016,2.0869,0.6125,0.5723,0.617,0.6276,0.7641
308,0.6462,0.3471,0.6537,0.6672,0.8553,0.6297,0.5942,0.6242,0.6402,0.7694,0.6324,0.4782,0.6387,0.652,0.7961,0.59,0.7468,0.5914,0.6093,0.6919,0.5691,0.6838,0.5793,0.572,0.7167,0.3897,0.7168618440628052,0.6500534415245056,2.0936,0.6135,0.57,0.6175,0.6281,0.7659
309,0.6451,0.3486,0.6536,0.6677,0.8526,0.6297,0.5959,0.6238,0.6414,0.7684,0.6307,0.4802,0.6381,0.6524,0.7922,0.5885,0.7495,0.5907,0.6081,0.6895,0.5695,0.6833,0.5798,0.5728,0.7163,0.3914,0.724848210811615,0.645135760307312,2.1002,0.6127,0.5715,0.6172,0.6285,0.7638
310,0.6464,0.3468,0.6536,0.6669,0.8558,0.6308,0.5962,0.6248,0.642,0.7695,0.6343,0.4758,0.6394,0.6522,0.7992,0.587,0.7504,0.5908,0.604,0.69,0.5722,0.6787,0.5823,0.5752,0.7206,0.3925,0.7229425311088562,0.646699845790863,2.1069,0.6141,0.5696,0.6182,0.6281,0.767
311,0.648,0.3397,0.653,0.6621,0.8643,0.6308,0.5893,0.6276,0.6369,0.7738,0.6369,0.4716,0.6398,0.6505,0.805,0.5949,0.7425,0.5949,0.6078,0.7032,0.5751,0.669,0.5828,0.5767,0.7298,0.3939,0.7227194309234619,0.646773636341095,2.1136,0.6171,0.5624,0.6196,0.6268,0.7752
312,0.6442,0.3505,0.6538,0.6694,0.8495,0.6291,0.5984,0.6224,0.6438,0.7656,0.6293,0.4818,0.6379,0.6527,0.7896,0.5833,0.7534,0.5878,0.6043,0.681,0.5691,0.6864,0.5799,0.5733,0.7134,0.4007,0.7204493284225464,0.647813081741333,2.1204,0.611,0.5741,0.6164,0.6287,0.7598
313,0.6478,0.3424,0.6536,0.665,0.8606,0.6318,0.5916,0.6271,0.64,0.7729,0.6356,0.4735,0.6395,0.6512,0.8019,0.5922,0.7434,0.593,0.6076,0.6973,0.5741,0.6718,0.583,0.5762,0.7264,0.3893,0.7207233905792236,0.6480045914649963,2.127,0.6163,0.5645,0.6192,0.628,0.7718
314,0.646,0.3485,0.6538,0.6685,0.8536,0.6308,0.5961,0.6244,0.6432,0.7684,0.6318,0.4793,0.6386,0.6525,0.7946,0.5863,0.7485,0.5903,0.6058,0.6861,0.5694,0.6845,0.5806,0.5728,0.7153,0.4008,0.7227874398231506,0.6468634009361267,2.1338,0.6129,0.5714,0.6175,0.6286,0.7636
315,0.6457,0.3496,0.6537,0.6691,0.8524,0.6302,0.595,0.6242,0.642,0.7687,0.6296,0.483,0.6373,0.652,0.7902,0.5868,0.7479,0.5911,0.606,0.688,0.5679,0.6865,0.5794,0.5713,0.7132,0.3867,0.7208437323570251,0.646530270576477,2.1404,0.612,0.5724,0.6171,0.6281,0.7625
316,0.6438,0.3509,0.654,0.6705,0.8477,0.6289,0.5976,0.6224,0.6433,0.7656,0.6276,0.4838,0.6372,0.6526,0.7854,0.5851,0.7519,0.5891,0.6072,0.6827,0.5693,0.6851,0.58,0.5735,0.7136,0.3974,0.7262858152389526,0.6432285308837891,2.1472,0.6109,0.5739,0.6165,0.6294,0.759
317,0.6421,0.3542,0.6532,0.6706,0.8446,0.6278,0.601,0.6207,0.6445,0.7631,0.6262,0.4858,0.6368,0.6527,0.7831,0.5811,0.7551,0.5871,0.6061,0.675,0.566,0.6933,0.5784,0.5708,0.7072,0.3936,0.7228673696517944,0.6450439691543579,2.1539,0.6086,0.5779,0.6152,0.6289,0.7546
318,0.6454,0.3482,0.6542,0.6695,0.8515,0.6297,0.5966,0.6231,0.6433,0.7671,0.6313,0.4784,0.6385,0.6524,0.7934,0.5855,0.7509,0.5897,0.6056,0.685,0.5705,0.6816,0.5809,0.5742,0.7165,0.3911,0.7222985625267029,0.646769642829895,2.1605,0.6125,0.5711,0.6173,0.629,0.7627
319,0.6459,0.3475,0.654,0.6684,0.8536,0.6305,0.5959,0.6241,0.6433,0.7682,0.6321,0.4779,0.6387,0.6526,0.7943,0.587,0.7481,0.5907,0.6074,0.6864,0.5699,0.6824,0.5804,0.5733,0.7166,0.3936,0.7234582304954529,0.6451956033706665,2.1672,0.6131,0.5704,0.6176,0.629,0.7638
320,0.6468,0.3457,0.6538,0.6673,0.8562,0.6311,0.5935,0.6252,0.6419,0.7703,0.6337,0.4759,0.6389,0.6518,0.7975,0.5884,0.746,0.5923,0.6056,0.6904,0.5721,0.6765,0.5822,0.5748,0.7214,0.3927,0.72257000207901,0.6464644074440002,2.1739,0.6144,0.5675,0.6185,0.6283,0.7672
321,0.6414,0.3553,0.6533,0.6718,0.8423,0.6269,0.6011,0.6198,0.6437,0.7625,0.6243,0.4876,0.6362,0.6533,0.7786,0.5802,0.756,0.5874,0.6043,0.6742,0.5655,0.6923,0.5781,0.5702,0.7067,0.3892,0.7269067764282227,0.6435037851333618,2.1806,0.6077,0.5785,0.615,0.6287,0.7529
322,0.6452,0.3503,0.6538,0.6704,0.8502,0.6302,0.5957,0.6237,0.6431,0.7677,0.6298,0.4831,0.6377,0.6529,0.7891,0.5852,0.7483,0.5909,0.6054,0.6847,0.5664,0.6884,0.5786,0.5699,0.7107,0.398,0.7197996377944946,0.645706295967102,2.1873,0.6114,0.5732,0.6169,0.6283,0.7605
323,0.6451,0.3491,0.6542,0.6705,0.85,0.6294,0.598,0.6224,0.6445,0.7655,0.6313,0.4786,0.6385,0.6526,0.7926,0.5837,0.7495,0.589,0.6058,0.6815,0.5687,0.6842,0.5802,0.5724,0.7133,0.3865,0.7198063731193542,0.647998571395874,2.1939,0.6116,0.5719,0.6169,0.6292,0.7606
324,0.6438,0.3497,0.654,0.6706,0.8477,0.6286,0.5968,0.622,0.6432,0.7656,0.6289,0.481,0.6376,0.6526,0.7876,0.5845,0.7493,0.5893,0.6057,0.6827,0.5694,0.6821,0.5802,0.5731,0.7147,0.3939,0.7210600972175598,0.6488465070724487,2.2006,0.611,0.5718,0.6166,0.629,0.7597
325,0.6467,0.3444,0.6539,0.6673,0.856,0.631,0.5931,0.6249,0.6424,0.7699,0.634,0.4742,0.6389,0.6511,0.7986,0.5899,0.7449,0.5932,0.6082,0.6905,0.573,0.6739,0.5826,0.5757,0.7227,0.3936,0.7207845449447632,0.64674973487854,2.2073,0.6149,0.5661,0.6187,0.6289,0.7675
326,0.6461,0.347,0.6542,0.6693,0.8529,0.6295,0.5946,0.6234,0.6419,0.768,0.6314,0.4786,0.6382,0.6521,0.7925,0.5877,0.7479,0.5918,0.6077,0.6863,0.5717,0.6782,0.5818,0.5751,0.719,0.3918,0.7209692597389221,0.6467198133468628,2.2139,0.6133,0.5693,0.6179,0.6292,0.7637
327,0.6446,0.3512,0.6537,0.6709,0.8487,0.6299,0.5976,0.6231,0.6444,0.7665,0.6291,0.4831,0.6376,0.6529,0.7875,0.5814,0.7527,0.5888,0.6034,0.6781,0.5669,0.6874,0.5791,0.5707,0.7106,0.3948,0.7202396988868713,0.6457003355026245,2.2206,0.6104,0.5744,0.6165,0.6285,0.7583
328,0.6452,0.3472,0.6539,0.6691,0.8514,0.6294,0.5951,0.6232,0.6427,0.767,0.6307,0.4797,0.6381,0.6529,0.7893,0.5848,0.7487,0.5895,0.6064,0.6816,0.5695,0.681,0.58,0.573,0.7159,0.3891,0.7175543308258057,0.6475457549095154,2.2273,0.6119,0.5703,0.6169,0.6288,0.761
329,0.6452,0.3472,0.6541,0.6695,0.8512,0.6288,0.596,0.6224,0.643,0.7658,0.6308,0.4783,0.6383,0.6527,0.7906,0.5834,0.7499,0.5884,0.6051,0.6799,0.5687,0.6831,0.5794,0.5723,0.7143,0.3909,0.7238513231277466,0.6452813744544983,2.234,0.6114,0.5709,0.6165,0.6285,0.7604
330,0.6464,0.3473,0.6537,0.669,0.8536,0.6308,0.5939,0.6246,0.6428,0.7688,0.6321,0.4793,0.6383,0.652,0.7938,0.5854,0.7437,0.5909,0.6066,0.6833,0.5656,0.688,0.5779,0.5688,0.7108,0.4023,0.7186654806137085,0.6498020887374878,2.2408,0.6121,0.5704,0.6171,0.6278,0.7621
331,0.6459,0.3467,0.6541,0.6701,0.8518,0.6303,0.5966,0.6233,0.6445,0.7667,0.6334,0.476,0.6392,0.6524,0.7959,0.5839,0.7469,0.5896,0.6061,0.6802,0.5668,0.6853,0.5789,0.5703,0.7117,0.3903,0.7168117165565491,0.6507716774940491,2.2475,0.6121,0.5703,0.617,0.6287,0.7613
332,0.6447,0.3501,0.654,0.6719,0.848,0.6295,0.5978,0.6223,0.6448,0.765,0.6306,0.4802,0.6379,0.652,0.7906,0.5829,0.7498,0.5898,0.6055,0.6788,0.5659,0.687,0.5785,0.5695,0.7097,0.3999,0.7212050557136536,0.6476374864578247,2.2543,0.6107,0.573,0.6165,0.6287,0.7584
333,0.6463,0.3473,0.654,0.6699,0.8527,0.63,0.5954,0.6236,0.6428,0.768,0.6324,0.4788,0.6384,0.6519,0.7938,0.5836,0.7487,0.5897,0.6043,0.6806,0.5689,0.6808,0.5802,0.5721,0.7154,0.3891,0.7206513285636902,0.649111807346344,2.2609,0.6122,0.5702,0.6172,0.6282,0.7621
334,0.6448,0.3474,0.6544,0.6711,0.849,0.6279,0.5971,0.6213,0.6433,0.7642,0.6307,0.478,0.6381,0.6521,0.7898,0.5843,0.7516,0.5898,0.6076,0.6788,0.569,0.6803,0.5797,0.5729,0.714,0.3945,0.7167012095451355,0.6475078463554382,2.2676,0.6113,0.5709,0.6167,0.6294,0.7592
335,0.644,0.349,0.654,0.6713,0.8473,0.628,0.5974,0.6211,0.6441,0.7641,0.6301,0.4796,0.6381,0.6528,0.7885,0.583,0.7503,0.589,0.607,0.6769,0.5668,0.6853,0.5786,0.5707,0.7105,0.4026,0.7191503643989563,0.647667407989502,2.2744,0.6104,0.5723,0.6162,0.6292,0.7575
336,0.6439,0.349,0.6539,0.671,0.8474,0.6283,0.5983,0.6214,0.6444,0.7644,0.6296,0.4787,0.6376,0.6517,0.7884,0.5831,0.7544,0.5899,0.6064,0.6774,0.5696,0.6792,0.5805,0.5734,0.7147,0.3956,0.7193058133125305,0.6471647024154663,2.2812,0.6109,0.5719,0.6167,0.6294,0.7585
337,0.6463,0.3436,0.6538,0.6675,0.8551,0.6299,0.5939,0.6238,0.6421,0.7684,0.6343,0.4735,0.6393,0.6518,0.7974,0.5865,0.7483,0.5913,0.6063,0.6844,0.573,0.6718,0.5824,0.5759,0.7225,0.3915,0.7223612070083618,0.6467018127441406,2.2878,0.614,0.5662,0.6181,0.6287,0.7656
338,0.6449,0.3482,0.6536,0.67,0.8499,0.6296,0.5967,0.6227,0.6447,0.7661,0.6311,0.4791,0.6385,0.6532,0.7903,0.5836,0.7494,0.5904,0.6077,0.6776,0.5661,0.6863,0.5781,0.5696,0.7105,0.3929,0.7218714952468872,0.6465482115745544,2.2945,0.6111,0.5719,0.6167,0.629,0.7589
339,0.6414,0.3527,0.6534,0.6726,0.8416,0.6271,0.5988,0.6201,0.645,0.762,0.6249,0.4859,0.6363,0.6534,0.7785,0.5834,0.7534,0.5906,0.6113,0.6744,0.5646,0.6921,0.5773,0.5695,0.7051,0.3931,0.7171431183815002,0.6491716504096985,2.3012,0.6083,0.5766,0.6155,0.6304,0.7523
340,0.6429,0.3494,0.6537,0.6714,0.8454,0.628,0.5993,0.6209,0.6452,0.7631,0.6292,0.4785,0.6377,0.652,0.7876,0.5829,0.7548,0.5902,0.6082,0.6751,0.5684,0.6821,0.5798,0.5725,0.7122,0.3918,0.7186147570610046,0.6482978463172913,2.3079,0.6103,0.5728,0.6165,0.6299,0.7567
341,0.6454,0.3447,0.6541,0.6692,0.8517,0.6282,0.5959,0.6219,0.6425,0.7652,0.6323,0.4751,0.6386,0.6517,0.7929,0.585,0.7513,0.5896,0.6081,0.6804,0.5719,0.6741,0.5815,0.5753,0.7197,0.3959,0.7200288772583008,0.6460055708885193,2.3146,0.6126,0.5682,0.6171,0.6294,0.762
342,0.6466,0.3407,0.6538,0.6665,0.8565,0.6295,0.593,0.6238,0.6415,0.7682,0.6358,0.4694,0.6397,0.651,0.8008,0.5876,0.748,0.5907,0.6074,0.6864,0.5759,0.6639,0.584,0.5784,0.7279,0.3979,0.7185235619544983,0.6477771401405334,2.3214,0.6151,0.563,0.6184,0.629,0.768
343,0.6453,0.3459,0.6543,0.6706,0.8503,0.6287,0.5962,0.6222,0.6432,0.7655,0.6317,0.4763,0.6384,0.652,0.7917,0.5853,0.7522,0.5908,0.6079,0.6809,0.572,0.6727,0.5818,0.5753,0.72,0.3949,0.7189453840255737,0.6466400027275085,2.3281,0.6126,0.5687,0.6175,0.6298,0.7617
344,0.6439,0.3469,0.6541,0.6708,0.8476,0.6278,0.5973,0.6212,0.6439,0.7636,0.63,0.4776,0.638,0.6521,0.7882,0.586,0.754,0.5909,0.6109,0.6793,0.5707,0.6758,0.5807,0.5745,0.7169,0.3916,0.7188043594360352,0.6473362445831299,2.3347,0.6117,0.5703,0.617,0.6304,0.7591
345,0.6448,0.3469,0.6541,0.6704,0.8495,0.6284,0.5976,0.6215,0.6445,0.7643,0.6319,0.4764,0.6388,0.6525,0.7917,0.5848,0.7555,0.5913,0.6095,0.678,0.5707,0.677,0.581,0.5744,0.7167,0.3931,0.7199183702468872,0.6488664150238037,2.3414,0.6121,0.5707,0.6173,0.6303,0.76
346,0.643,0.3506,0.6536,0.6719,0.8451,0.6282,0.5985,0.6212,0.6452,0.7636,0.6285,0.4813,0.6374,0.6524,0.7855,0.583,0.7561,0.5909,0.6091,0.6741,0.5671,0.6845,0.579,0.5712,0.7102,0.3929,0.7216965556144714,0.6462509632110596,2.3481,0.61,0.5742,0.6164,0.63,0.7557
347,0.6449,0.3471,0.6541,0.671,0.8491,0.6287,0.5957,0.6221,0.6436,0.7652,0.6308,0.4781,0.6382,0.6521,0.7897,0.5854,0.751,0.5908,0.6098,0.6795,0.568,0.6788,0.579,0.5714,0.714,0.3975,0.7184255123138428,0.6473562121391296,2.3548,0.6116,0.5701,0.6168,0.6296,0.7595
348,0.6443,0.3466,0.6541,0.6706,0.8485,0.6282,0.5975,0.6213,0.6447,0.7639,0.6317,0.4757,0.6387,0.6523,0.791,0.5853,0.757,0.5912,0.6103,0.6783,0.5719,0.6731,0.5817,0.5755,0.7188,0.3922,0.7210063338279724,0.6463267803192139,2.3615,0.6123,0.57,0.6174,0.6307,0.7601
349,0.6459,0.3432,0.6537,0.6676,0.854,0.6294,0.5934,0.6234,0.6422,0.7676,0.6337,0.4729,0.639,0.6515,0.7959,0.5869,0.7509,0.5918,0.6078,0.6829,0.5729,0.6689,0.5821,0.5755,0.7233,0.3941,0.716389536857605,0.6485931277275085,2.3682,0.6138,0.5659,0.618,0.6289,0.7647
350,0.6454,0.3452,0.6535,0.669,0.8519,0.6303,0.5947,0.6236,0.6439,0.7676,0.6331,0.4746,0.6387,0.6512,0.7954,0.585,0.7515,0.5917,0.6069,0.6802,0.5703,0.6738,0.581,0.5732,0.7184,0.3979,0.7176671028137207,0.6475836038589478,2.375,0.6128,0.568,0.6177,0.6288,0.7627
351,0.6451,0.3468,0.6538,0.6706,0.8499,0.6299,0.5963,0.6229,0.645,0.7659,0.6314,0.4773,0.6382,0.6517,0.791,0.5843,0.7533,0.5919,0.6082,0.6776,0.5681,0.6795,0.5796,0.5714,0.7139,0.395,0.717440128326416,0.6489502191543579,2.3817,0.6118,0.5706,0.6173,0.6294,0.7597
352,0.6433,0.3488,0.6539,0.6724,0.8452,0.6281,0.5982,0.6209,0.6455,0.7628,0.629,0.4796,0.6377,0.6526,0.7854,0.584,0.7553,0.5914,0.6108,0.6742,0.5674,0.6822,0.5792,0.5715,0.7111,0.3908,0.7154318690299988,0.6500813961029053,2.3884,0.6104,0.5728,0.6166,0.6306,0.7557
353,0.6441,0.3479,0.6539,0.6718,0.847,0.6293,0.5979,0.622,0.6458,0.7645,0.6309,0.4765,0.6383,0.6519,0.7902,0.5847,0.7555,0.5923,0.6096,0.6772,0.5693,0.6769,0.5806,0.5729,0.7149,0.3959,0.7187865376472473,0.6462888717651367,2.3951,0.6117,0.5709,0.6174,0.6304,0.7588
354,0.6466,0.3412,0.6538,0.6675,0.8555,0.6303,0.5914,0.6246,0.6422,0.7682,0.6343,0.4721,0.639,0.6507,0.7977,0.5875,0.7446,0.5905,0.6087,0.6846,0.5723,0.6694,0.5814,0.5748,0.7232,0.3914,0.7173299789428711,0.6473562121391296,2.4017,0.6142,0.5637,0.6179,0.6288,0.7658
355,0.6446,0.3445,0.6539,0.6699,0.8496,0.629,0.5957,0.6221,0.6448,0.7651,0.6322,0.473,0.6385,0.6512,0.7933,0.5855,0.7535,0.5915,0.6079,0.68,0.5728,0.6692,0.5824,0.576,0.7215,0.391,0.7157886028289795,0.6470769047737122,2.4084,0.6128,0.5672,0.6177,0.63,0.7619
356,0.6484,0.3386,0.6543,0.6674,0.859,0.632,0.5899,0.6266,0.6424,0.7706,0.6361,0.4696,0.6396,0.6508,0.8015,0.5875,0.7439,0.5912,0.6062,0.6875,0.5737,0.6655,0.5825,0.5756,0.7264,0.3943,0.7166761755943298,0.6495248079299927,2.4151,0.6155,0.5615,0.6188,0.6285,0.769
357,0.6468,0.3417,0.6538,0.6677,0.8556,0.6308,0.5922,0.6249,0.643,0.7683,0.6342,0.4728,0.6391,0.6512,0.797,0.5871,0.7471,0.5919,0.6083,0.6836,0.571,0.6723,0.5808,0.5734,0.7209,0.3924,0.7232126593589783,0.6447646617889404,2.4218,0.614,0.5652,0.6181,0.6287,0.7651
358,0.6444,0.3465,0.6541,0.6713,0.8481,0.6292,0.5965,0.6223,0.6455,0.7644,0.6301,0.4778,0.6381,0.6525,0.7879,0.5848,0.7536,0.5916,0.61,0.6772,0.5685,0.6787,0.5795,0.5721,0.7141,0.3943,0.7192327976226807,0.6464644074440002,2.4285,0.6114,0.5706,0.6171,0.6303,0.7583
359,0.6453,0.3429,0.6537,0.6683,0.8524,0.6304,0.5934,0.624,0.6442,0.7671,0.633,0.4735,0.6387,0.6512,0.7944,0.5867,0.7481,0.5914,0.609,0.6823,0.5714,0.6714,0.5812,0.5741,0.7205,0.3954,0.7196536660194397,0.6467776298522949,2.4353,0.6134,0.5659,0.6178,0.6294,0.7633
360,0.6453,0.3436,0.6534,0.6686,0.852,0.631,0.5919,0.6247,0.6435,0.7687,0.6319,0.4754,0.638,0.6509,0.7926,0.588,0.7449,0.5938,0.6088,0.6851,0.5697,0.6733,0.5804,0.5722,0.7186,0.3897,0.7169312238693237,0.6486170291900635,2.4419,0.6132,0.5658,0.6181,0.6288,0.7634
361,0.6447,0.3442,0.6541,0.6706,0.8492,0.6294,0.5944,0.6227,0.6446,0.7655,0.6311,0.4748,0.638,0.6514,0.7903,0.5872,0.7497,0.5926,0.6102,0.6803,0.5714,0.6712,0.5814,0.5745,0.7194,0.3939,0.7131659984588623,0.6502589583396912,2.4486,0.6128,0.5669,0.6178,0.6303,0.7609
362,0.6446,0.3446,0.6543,0.6709,0.8489,0.6295,0.5958,0.6227,0.6454,0.7649,0.6309,0.4751,0.6382,0.6518,0.7893,0.5863,0.7519,0.5915,0.6107,0.6782,0.5723,0.6701,0.582,0.5756,0.7205,0.394,0.7187503576278687,0.6482000946998596,2.4553,0.6127,0.5675,0.6177,0.6309,0.7604
363,0.6448,0.3449,0.6538,0.6699,0.85,0.6306,0.5958,0.6237,0.6457,0.7662,0.6311,0.4754,0.638,0.6511,0.7906,0.5868,0.7524,0.5928,0.6101,0.68,0.572,0.6704,0.5819,0.575,0.7206,0.3918,0.7215346097946167,0.6457921266555786,2.462,0.6131,0.5678,0.618,0.6304,0.7615
364,0.6473,0.3385,0.6543,0.667,0.8573,0.6316,0.5931,0.6255,0.6444,0.7688,0.6364,0.4673,0.64,0.6509,0.8021,0.5884,0.7501,0.5917,0.6085,0.6861,0.5776,0.6585,0.5851,0.5798,0.7313,0.4111,0.7188860774040222,0.6488863825798035,2.469,0.6163,0.5615,0.6193,0.6301,0.7691
365,0.6457,0.3426,0.6536,0.668,0.8533,0.6316,0.5939,0.6249,0.6455,0.7679,0.6337,0.4723,0.6389,0.6509,0.7963,0.5861,0.7493,0.5916,0.6084,0.6807,0.5723,0.6697,0.5821,0.5749,0.7222,0.4268,0.7190671563148499,0.6478230357170105,2.4762,0.6139,0.5656,0.6182,0.6295,0.7641
366,0.6458,0.3424,0.6537,0.6679,0.8537,0.631,0.5941,0.6245,0.6449,0.7672,0.6339,0.4722,0.6391,0.6511,0.7963,0.5863,0.7505,0.5919,0.609,0.6803,0.5722,0.6698,0.5819,0.5749,0.7222,0.4003,0.7196827530860901,0.6462410092353821,2.4831,0.6138,0.5658,0.6182,0.6296,0.7639
367,0.6458,0.3428,0.6537,0.6687,0.853,0.6317,0.5941,0.625,0.6456,0.768,0.6338,0.4716,0.6389,0.6507,0.7971,0.5859,0.7508,0.5925,0.6077,0.6811,0.5717,0.6706,0.5819,0.5744,0.721,0.3924,0.717962384223938,0.6477452516555786,2.4898,0.6138,0.566,0.6184,0.6294,0.764
368,0.6485,0.3377,0.6543,0.6669,0.8598,0.632,0.5904,0.6269,0.6419,0.771,0.6366,0.4686,0.64,0.6508,0.8025,0.5876,0.7464,0.5916,0.6056,0.6874,0.5749,0.6619,0.5832,0.5768,0.7285,0.3999,0.7196723222732544,0.6481122970581055,2.4966,0.6159,0.561,0.6192,0.6284,0.7698
369,0.6462,0.3414,0.6537,0.6678,0.8546,0.632,0.5933,0.6258,0.645,0.7686,0.6328,0.4735,0.6385,0.6511,0.7939,0.5869,0.7498,0.5919,0.6097,0.6817,0.5718,0.6694,0.5814,0.5743,0.7221,0.3946,0.7171052098274231,0.6476933360099792,2.5033,0.6139,0.5655,0.6183,0.6296,0.7642
370,0.646,0.3444,0.6538,0.6704,0.8515,0.6324,0.5946,0.6255,0.6462,0.7682,0.6309,0.4768,0.6377,0.651,0.7908,0.586,0.7499,0.5935,0.6089,0.6806,0.5688,0.6765,0.5802,0.5716,0.7164,0.3944,0.7183701992034912,0.6477013230323792,2.51,0.6128,0.5684,0.6181,0.6296,0.7615
371,0.6452,0.3414,0.6541,0.6692,0.8513,0.6298,0.5949,0.6234,0.6445,0.7658,0.6314,0.4734,0.6383,0.6514,0.7908,0.5869,0.753,0.5914,0.6108,0.6807,0.5741,0.6658,0.583,0.5772,0.7238,0.3943,0.715591311454773,0.6490898728370667,2.5167,0.6135,0.5657,0.618,0.6306,0.7625
372,0.648,0.3371,0.6543,0.6675,0.8582,0.6321,0.5912,0.6265,0.6434,0.7703,0.6352,0.4683,0.6393,0.6504,0.8004,0.5877,0.7489,0.5922,0.6076,0.6851,0.5749,0.6622,0.5835,0.577,0.7277,0.3921,0.7136093378067017,0.6501652002334595,2.5234,0.6156,0.5615,0.6192,0.6292,0.7683
373,0.645,0.3417,0.6539,0.6689,0.8512,0.63,0.5961,0.6232,0.6459,0.7651,0.6316,0.4725,0.6385,0.6515,0.7915,0.585,0.7558,0.591,0.61,0.6773,0.5734,0.6684,0.5827,0.5767,0.7221,0.3942,0.7193050980567932,0.6471766233444214,2.5301,0.613,0.5669,0.6179,0.6306,0.7614
374,0.6459,0.3396,0.6538,0.6678,0.8539,0.6316,0.5945,0.6249,0.6461,0.7671,0.6337,0.4693,0.6391,0.6506,0.7973,0.5854,0.7534,0.5905,0.6083,0.6792,0.5743,0.665,0.5832,0.5771,0.725,0.3988,0.7151949405670166,0.6498479843139648,2.5369,0.6142,0.5644,0.6183,0.63,0.7645
375,0.6491,0.3362,0.6546,0.6673,0.8606,0.6337,0.5912,0.6279,0.6446,0.7711,0.6376,0.4656,0.6405,0.6507,0.8056,0.5874,0.7484,0.5916,0.6063,0.6858,0.5754,0.6599,0.5838,0.5771,0.7295,0.3898,0.7175483107566833,0.6489661931991577,2.5435,0.6166,0.5603,0.6197,0.6292,0.7705
376,0.6465,0.3407,0.6538,0.6684,0.8544,0.6321,0.5927,0.6259,0.6447,0.7689,0.6328,0.4728,0.6384,0.6509,0.7946,0.5875,0.7483,0.5928,0.6084,0.6826,0.572,0.6685,0.5819,0.5745,0.7222,0.3929,0.7146391272544861,0.6482738852500916,2.5502,0.6142,0.5646,0.6186,0.6294,0.7645
377,0.6469,0.3385,0.6541,0.6678,0.8557,0.6321,0.5934,0.626,0.6446,0.7689,0.6331,0.4709,0.6385,0.6503,0.7955,0.587,0.7492,0.5911,0.6083,0.6825,0.5743,0.6635,0.5829,0.5766,0.7262,0.3956,0.7185813188552856,0.647088885307312,2.5569,0.6147,0.5631,0.6185,0.6295,0.7658
378,0.6481,0.3382,0.6541,0.6679,0.8579,0.6336,0.5917,0.6276,0.6451,0.7706,0.6347,0.4699,0.639,0.6502,0.7997,0.5871,0.7468,0.5922,0.6076,0.6828,0.5721,0.6669,0.5819,0.574,0.7241,0.3918,0.7194198369979858,0.6467277407646179,2.5636,0.6151,0.5627,0.619,0.629,0.767
379,0.6466,0.3387,0.654,0.668,0.8551,0.632,0.5938,0.6257,0.6453,0.7682,0.6329,0.4711,0.6386,0.6507,0.7951,0.5862,0.75,0.5905,0.6081,0.6814,0.5734,0.6657,0.5826,0.5759,0.7243,0.3928,0.7129247188568115,0.6510370373725891,2.5703,0.6142,0.5639,0.6183,0.6296,0.7648
380,0.6442,0.3455,0.6542,0.6725,0.8466,0.6291,0.5987,0.6218,0.6467,0.7635,0.6272,0.4792,0.6371,0.6523,0.7831,0.583,0.7562,0.5909,0.61,0.6719,0.568,0.6776,0.5795,0.5716,0.7133,0.3975,0.7189896702766418,0.647104799747467,2.577,0.6103,0.5714,0.6167,0.6306,0.7557
381,0.6456,0.341,0.6541,0.6698,0.8515,0.6311,0.5966,0.6239,0.647,0.7658,0.6321,0.4715,0.6387,0.6512,0.7939,0.5845,0.7536,0.5908,0.608,0.6769,0.5719,0.67,0.5819,0.5749,0.7204,0.3965,0.7146406173706055,0.6501951217651367,2.5837,0.613,0.5665,0.6179,0.6302,0.7617
382,0.6482,0.3372,0.6543,0.6678,0.8583,0.6337,0.5926,0.6275,0.6453,0.7705,0.6353,0.4681,0.6394,0.6503,0.8015,0.5879,0.7493,0.5929,0.6078,0.6851,0.5741,0.6631,0.5832,0.576,0.727,0.3918,0.7190520167350769,0.6491557359695435,2.5904,0.6158,0.5621,0.6195,0.6294,0.7685
383,0.6445,0.3454,0.6546,0.6732,0.8466,0.6287,0.5996,0.6214,0.6466,0.7628,0.6282,0.4777,0.6375,0.6522,0.7847,0.5821,0.7582,0.5906,0.6093,0.6706,0.5689,0.6765,0.5801,0.5726,0.7141,0.3906,0.7168679237365723,0.6473920941352844,2.5971,0.6105,0.5715,0.6168,0.6308,0.7558
384,0.6453,0.3411,0.6543,0.6699,0.851,0.6298,0.596,0.6232,0.6455,0.7651,0.6308,0.4739,0.6381,0.6515,0.7902,0.5867,0.7528,0.5914,0.611,0.6784,0.572,0.6683,0.5815,0.5749,0.7213,0.3923,0.7190459370613098,0.6460694074630737,2.6037,0.6129,0.5664,0.6177,0.6306,0.7612
385,0.6471,0.3377,0.6542,0.6682,0.8557,0.6322,0.5929,0.626,0.6448,0.7687,0.6331,0.4704,0.6386,0.6507,0.7961,0.5874,0.7488,0.5915,0.6089,0.6838,0.5729,0.6659,0.5822,0.5752,0.7241,0.3997,0.7151018381118774,0.6488863825798035,2.6105,0.6145,0.5631,0.6185,0.6296,0.7657
386,0.6464,0.3406,0.6544,0.6705,0.8524,0.6318,0.5952,0.6248,0.6468,0.767,0.6314,0.473,0.6383,0.6515,0.7923,0.5859,0.751,0.5926,0.6082,0.68,0.5705,0.6712,0.5811,0.5733,0.7192,0.388,0.7157419323921204,0.6474061012268066,2.6171,0.6132,0.5662,0.6182,0.6301,0.7622
387,0.6446,0.3422,0.6543,0.6709,0.8487,0.6295,0.5955,0.6228,0.6455,0.7644,0.6281,0.477,0.6373,0.652,0.7847,0.5863,0.7515,0.5907,0.6117,0.6772,0.57,0.6714,0.5801,0.5731,0.7179,0.3913,0.7184142470359802,0.6467556953430176,2.6238,0.6117,0.5675,0.617,0.6306,0.7586
388,0.647,0.3382,0.6543,0.669,0.8549,0.6325,0.5926,0.6262,0.6455,0.7685,0.6324,0.471,0.6382,0.6504,0.795,0.5882,0.7475,0.5922,0.6099,0.684,0.5725,0.6654,0.5819,0.5748,0.7234,0.4026,0.7139041423797607,0.649596631526947,2.6306,0.6145,0.5629,0.6186,0.6299,0.7652
389,0.6459,0.3403,0.6542,0.6696,0.8524,0.6306,0.5945,0.6239,0.6456,0.7659,0.6311,0.4727,0.638,0.6508,0.7923,0.5872,0.7516,0.5922,0.6104,0.6802,0.5715,0.668,0.5813,0.5742,0.7211,0.386,0.7173774242401123,0.6465522050857544,2.6373,0.6133,0.5654,0.6179,0.6301,0.7624
390,0.6451,0.3435,0.6545,0.6726,0.8481,0.6299,0.5967,0.6226,0.6466,0.7646,0.6289,0.4762,0.6375,0.6518,0.7869,0.5851,0.7531,0.5929,0.6099,0.6763,0.5682,0.6754,0.5796,0.5716,0.7141,0.3888,0.7175467610359192,0.6472564339637756,2.6439,0.6114,0.569,0.6174,0.6305,0.758
391,0.6462,0.3391,0.6544,0.6694,0.853,0.6308,0.5959,0.6238,0.6466,0.7659,0.6321,0.4699,0.6386,0.6507,0.795,0.5852,0.7547,0.5908,0.6076,0.679,0.5741,0.6626,0.5832,0.5768,0.7247,0.392,0.7171363234519958,0.6469132900238037,2.6506,0.6137,0.5644,0.6182,0.6302,0.7635
392,0.6449,0.343,0.6543,0.6717,0.8486,0.6299,0.5979,0.6225,0.6474,0.7639,0.629,0.4758,0.6376,0.6519,0.7874,0.5842,0.7553,0.5911,0.6093,0.6747,0.5696,0.6722,0.5805,0.5728,0.7167,0.3902,0.7161576747894287,0.6495327949523926,2.6572,0.6115,0.5688,0.6172,0.6306,0.7583
393,0.6449,0.3431,0.6548,0.6728,0.8477,0.6289,0.5991,0.6215,0.6473,0.7623,0.6287,0.4755,0.6379,0.6524,0.7862,0.5828,0.7572,0.5903,0.6097,0.6719,0.5698,0.6752,0.5807,0.5737,0.715,0.4495,0.7139805555343628,0.6506140828132629,2.6649,0.611,0.57,0.617,0.6312,0.7566
394,0.6446,0.3426,0.6545,0.6725,0.8474,0.6288,0.5977,0.6215,0.6469,0.7625,0.6284,0.4754,0.6376,0.6522,0.7857,0.5835,0.7558,0.5912,0.6098,0.6729,0.5686,0.6759,0.5798,0.5724,0.7136,0.6252,0.7133480310440063,0.6495168209075928,2.6754,0.6108,0.5695,0.6169,0.6308,0.7564
395,0.6473,0.3359,0.6543,0.6676,0.8568,0.6322,0.5938,0.6257,0.6458,0.768,0.6344,0.4671,0.6394,0.6507,0.8,0.589,0.7517,0.5929,0.6107,0.6844,0.5746,0.6622,0.5833,0.5769,0.7263,0.5005,0.7172183394432068,0.6483477354049683,2.6839,0.6155,0.5621,0.6191,0.6303,0.7671
396,0.6482,0.3362,0.6543,0.6681,0.8581,0.6328,0.593,0.6264,0.6454,0.7691,0.6345,0.468,0.6391,0.6505,0.8002,0.5884,0.751,0.5946,0.6086,0.6851,0.5735,0.6638,0.583,0.5757,0.7253,0.4504,0.7164627909660339,0.6487307548522949,2.6915,0.6155,0.5624,0.6195,0.6297,0.7676
397,0.6452,0.3437,0.6545,0.6734,0.8477,0.6302,0.5973,0.6227,0.6474,0.7644,0.6282,0.4762,0.6372,0.6515,0.7863,0.5835,0.7562,0.593,0.6079,0.6753,0.569,0.6751,0.5807,0.5726,0.7143,0.4375,0.7125698924064636,0.649955689907074,2.6989,0.6112,0.5697,0.6176,0.6306,0.7576
398,0.6453,0.341,0.6542,0.6708,0.8502,0.63,0.5967,0.6228,0.6466,0.7646,0.629,0.4739,0.6377,0.6518,0.7876,0.5849,0.7562,0.5928,0.61,0.6757,0.5701,0.6721,0.5808,0.5734,0.717,0.4101,0.7159651517868042,0.6469990611076355,2.7059,0.6119,0.568,0.6177,0.6305,0.759
399,0.6457,0.3395,0.6543,0.6702,0.8513,0.6306,0.5946,0.6238,0.6461,0.7657,0.6288,0.4741,0.6374,0.6517,0.7871,0.5874,0.7517,0.5924,0.6114,0.6795,0.5711,0.6684,0.581,0.574,0.7198,0.4124,0.7141390442848206,0.6486330032348633,2.7129,0.6127,0.5657,0.6178,0.6307,0.7607
401,0.6669,0.2925,0.6718,0.6645,0.9093,0.655,0.5483,0.6602,0.6518,0.7957,0.6672,0.4148,0.6685,0.6661,0.8434,0.6125,0.7167,0.5982,0.648,0.7037,0.6319,0.5514,0.6388,0.6288,0.8019,1.6275,0.685154914855957,0.6729623079299927,0.0271,0.6467,0.5047,0.6475,0.6518,0.8108
402,0.6373,0.348,0.6648,0.7329,0.8051,0.6352,0.5734,0.628,0.6642,0.7582,0.6254,0.4427,0.6617,0.7088,0.7687,0.5837,0.7418,0.5814,0.6696,0.6452,0.6339,0.574,0.6329,0.6471,0.7751,0.6126,0.6551476716995239,0.6882979869842529,0.0375,0.6231,0.536,0.6338,0.6845,0.7505
403,0.6293,0.3683,0.6494,0.7268,0.7909,0.6287,0.592,0.6215,0.669,0.7454,0.6327,0.4277,0.6601,0.7081,0.7851,0.5836,0.728,0.5837,0.6746,0.6453,0.6267,0.5823,0.6251,0.6467,0.7579,0.543,0.6304356455802917,0.7048766016960144,0.0466,0.6202,0.5397,0.628,0.685,0.7449
404,0.6538,0.3335,0.6644,0.736,0.8212,0.6245,0.5974,0.6204,0.6571,0.7408,0.6648,0.3977,0.6731,0.7147,0.821,0.5784,0.7204,0.5817,0.6689,0.6455,0.6161,0.5855,0.6162,0.636,0.7495,0.4988,0.609058678150177,0.7189993858337402,0.055,0.6275,0.5269,0.6312,0.6825,0.7556
405,0.6414,0.3512,0.6626,0.7442,0.8033,0.6112,0.6272,0.6118,0.6607,0.7225,0.6571,0.4088,0.6763,0.7259,0.7942,0.5938,0.7055,0.5963,0.6883,0.6573,0.5905,0.6213,0.6088,0.6416,0.6962,0.4797,0.5960630774497986,0.7281146049499512,0.0631,0.6188,0.5428,0.6312,0.6921,0.7347
406,0.6628,0.3273,0.6658,0.7389,0.8295,0.603,0.6342,0.6078,0.6482,0.7129,0.6833,0.3887,0.6824,0.7197,0.8313,0.5914,0.6909,0.594,0.6813,0.6608,0.581,0.6443,0.5947,0.6165,0.6957,0.4428,0.5866973400115967,0.736382007598877,0.0706,0.6243,0.5371,0.6289,0.6809,0.746
407,0.6548,0.3396,0.6702,0.7464,0.8205,0.5986,0.666,0.6033,0.6472,0.7053,0.6795,0.3785,0.6832,0.725,0.8242,0.6209,0.6512,0.613,0.6868,0.7002,0.5802,0.6305,0.5906,0.6134,0.6982,0.4345,0.5698419213294983,0.743801474571228,0.078,0.6268,0.5332,0.6321,0.6838,0.7497
408,0.6751,0.293,0.6769,0.7452,0.846,0.6171,0.6591,0.6193,0.6487,0.7267,0.6951,0.3627,0.6897,0.7118,0.8521,0.6436,0.6254,0.6277,0.6892,0.7345,0.5722,0.6116,0.5895,0.6113,0.6894,0.4312,0.5663941502571106,0.7473067045211792,0.0853,0.6406,0.5104,0.6406,0.6812,0.7697
409,0.6761,0.3032,0.6779,0.7528,0.8432,0.6256,0.6661,0.6252,0.656,0.7357,0.6924,0.3555,0.6882,0.7185,0.8537,0.6588,0.6112,0.6396,0.7032,0.7449,0.5881,0.6019,0.6002,0.6261,0.7058,0.4227,0.5500807762145996,0.7550114989280701,0.0925,0.6482,0.5076,0.6462,0.6913,0.7767
410,0.6196,0.3969,0.6542,0.7522,0.7732,0.5914,0.6509,0.6015,0.6692,0.695,0.6257,0.4366,0.6723,0.7227,0.7564,0.6129,0.6811,0.6113,0.6985,0.6804,0.5437,0.6872,0.5932,0.6269,0.6342,0.4233,0.5423359274864197,0.760485827922821,0.0997,0.5987,0.5705,0.6265,0.6939,0.7078
411,0.6884,0.2905,0.6811,0.7482,0.8581,0.6369,0.6208,0.6331,0.6614,0.7493,0.7016,0.3149,0.701,0.7023,0.8854,0.6763,0.5799,0.6609,0.7002,0.7668,0.6062,0.5745,0.6051,0.6236,0.7399,0.4127,0.5365206599235535,0.7648429274559021,0.1067,0.6619,0.4761,0.6562,0.6871,0.7999
412,0.6523,0.3603,0.669,0.7593,0.8112,0.5891,0.6816,0.6049,0.6635,0.6919,0.6687,0.3738,0.6828,0.7338,0.8321,0.6465,0.6356,0.6336,0.7192,0.7239,0.5876,0.6263,0.6086,0.6444,0.691,0.4185,0.531263530254364,0.7660359740257263,0.1138,0.6288,0.5355,0.6398,0.704,0.75
413,0.6727,0.3245,0.6752,0.7639,0.8325,0.641,0.5793,0.6332,0.6817,0.7518,0.6779,0.3517,0.6851,0.7317,0.8483,0.6566,0.6062,0.6426,0.7211,0.7436,0.6106,0.6052,0.6191,0.6506,0.7235,0.4189,0.5252363085746765,0.7692359685897827,0.1209,0.6518,0.4934,0.651,0.7098,0.7799
414,0.6891,0.2915,0.6859,0.7687,0.8518,0.6269,0.6445,0.6282,0.6707,0.7342,0.6733,0.3792,0.6838,0.7308,0.8197,0.6504,0.6149,0.6346,0.7134,0.7373,0.5632,0.6586,0.6077,0.6331,0.6582,0.4137,0.5208421945571899,0.7729846239089966,0.1279,0.6406,0.5177,0.648,0.7033,0.7602
415,0.6907,0.2888,0.6863,0.7645,0.8557,0.6383,0.598,0.6359,0.6629,0.7475,0.7046,0.3252,0.6986,0.7176,0.8757,0.6739,0.5847,0.6608,0.6963,0.7691,0.596,0.5884,0.5998,0.6229,0.7226,0.4177,0.5116298198699951,0.7777507305145264,0.135,0.6607,0.477,0.6563,0.6928,0.7941
416,0.7145,0.2532,0.7008,0.7545,0.8865,0.6572,0.5793,0.6606,0.6642,0.7711,0.7134,0.316,0.7103,0.7173,0.8836,0.6784,0.5729,0.6619,0.7053,0.7691,0.5882,0.604,0.6025,0.6236,0.7069,0.4173,0.506644606590271,0.7794824242591858,0.1421,0.6703,0.4651,0.6672,0.693,0.8034
417,0.6546,0.3632,0.6639,0.7597,0.8101,0.636,0.5632,0.6324,0.7015,0.7415,0.6916,0.3433,0.6901,0.7297,0.8563,0.6574,0.6185,0.6423,0.7283,0.7374,0.5774,0.6453,0.5885,0.6269,0.6828,0.4104,0.5054410696029663,0.7806115746498108,0.1491,0.6434,0.5067,0.6434,0.7092,0.7656
418,0.6758,0.322,0.6813,0.7815,0.8312,0.618,0.6151,0.6187,0.6744,0.7253,0.6583,0.3822,0.6829,0.7363,0.8153,0.6524,0.5994,0.6444,0.7136,0.7425,0.5588,0.6987,0.6081,0.6434,0.6421,0.4098,0.500901997089386,0.7824988961219788,0.1561,0.6327,0.5235,0.6471,0.7098,0.7513
419,0.672,0.3278,0.6798,0.7721,0.8312,0.6314,0.6004,0.6284,0.6886,0.7373,0.6737,0.3655,0.6843,0.7317,0.831,0.6803,0.5949,0.6598,0.7333,0.7608,0.5562,0.6812,0.5808,0.62,0.6607,0.4116,0.4863772392272949,0.7911472916603088,0.1631,0.6427,0.514,0.6466,0.7091,0.7642
420,0.7002,0.2782,0.6901,0.7661,0.8638,0.6353,0.5853,0.6306,0.6723,0.7476,0.7139,0.3065,0.7097,0.7193,0.8887,0.687,0.5786,0.6666,0.7273,0.7651,0.6181,0.5866,0.6233,0.6576,0.7329,0.4115,0.48839136958122253,0.7898006439208984,0.1701,0.6709,0.467,0.6641,0.7085,0.7996
421,0.6936,0.2905,0.6892,0.7796,0.8524,0.6259,0.6118,0.6246,0.6702,0.7347,0.7077,0.3182,0.7008,0.7307,0.8783,0.6868,0.5703,0.6661,0.7267,0.7705,0.5925,0.6261,0.6075,0.6465,0.6982,0.4164,0.48149436712265015,0.7943273782730103,0.1771,0.6613,0.4834,0.6576,0.7107,0.7868
422,0.6673,0.3431,0.6753,0.7768,0.8217,0.6221,0.616,0.6222,0.6777,0.727,0.6876,0.3421,0.6918,0.7416,0.8501,0.6929,0.5556,0.6715,0.7423,0.7732,0.5895,0.6427,0.6174,0.6541,0.6857,0.4104,0.48126670718193054,0.7939063906669617,0.1841,0.6519,0.4999,0.6556,0.7185,0.7715
423,0.669,0.3559,0.6739,0.7665,0.8271,0.6458,0.5751,0.6365,0.6854,0.755,0.7076,0.327,0.7011,0.7344,0.8696,0.6807,0.5656,0.6665,0.7123,0.7737,0.5617,0.6715,0.5899,0.6176,0.6596,0.4151,0.4811541438102722,0.7937089204788208,0.1912,0.653,0.499,0.6536,0.7032,0.777
424,0.6498,0.3721,0.6715,0.7783,0.8023,0.6154,0.6399,0.6199,0.6724,0.7216,0.6576,0.3701,0.6841,0.7381,0.8233,0.6679,0.5922,0.6501,0.7361,0.7515,0.5742,0.6639,0.6163,0.6539,0.6647,0.4161,0.4725293815135956,0.7979981899261475,0.1982,0.633,0.5276,0.6484,0.7158,0.7527
425,0.6524,0.3573,0.6756,0.7801,0.8063,0.6003,0.6307,0.6171,0.6873,0.7034,0.6663,0.3625,0.6853,0.7395,0.825,0.6664,0.612,0.6534,0.7391,0.7435,0.5563,0.6902,0.6064,0.6535,0.6413,0.414,0.47270667552948,0.7987882494926453,0.2053,0.6283,0.5305,0.6476,0.7199,0.7439
426,0.7036,0.2816,0.6945,0.7926,0.8568,0.6292,0.589,0.6269,0.6741,0.7407,0.6885,0.3367,0.6889,0.7276,0.8577,0.6797,0.5641,0.6611,0.7303,0.7656,0.5518,0.7062,0.5871,0.6269,0.6475,0.411,0.46119797229766846,0.8044500946998596,0.2122,0.6506,0.4955,0.6517,0.7103,0.7737
427,0.6665,0.3356,0.6799,0.788,0.8191,0.609,0.6177,0.6164,0.6809,0.7148,0.66,0.3708,0.6825,0.733,0.8212,0.6507,0.6192,0.6437,0.7204,0.7355,0.5353,0.7685,0.5783,0.6208,0.6323,0.4107,0.4665485918521881,0.8014435768127441,0.2192,0.6243,0.5424,0.6402,0.7086,0.7446
428,0.6984,0.2895,0.6912,0.7882,0.8529,0.6358,0.5994,0.634,0.6789,0.7428,0.6969,0.3301,0.6965,0.7438,0.8596,0.6778,0.581,0.6582,0.7333,0.7639,0.5722,0.6704,0.6063,0.6418,0.67,0.4133,0.46026021242141724,0.8056391477584839,0.2262,0.6562,0.4941,0.6572,0.7172,0.7778
429,0.6933,0.2947,0.6918,0.7924,0.848,0.6238,0.6192,0.6255,0.6844,0.7316,0.7066,0.3313,0.7024,0.7481,0.861,0.6682,0.5903,0.6538,0.729,0.755,0.5577,0.713,0.6089,0.6434,0.645,0.4115,0.4578503668308258,0.8062176704406738,0.2332,0.6499,0.5097,0.6565,0.7195,0.7681
430,0.7241,0.2632,0.706,0.7884,0.8767,0.6411,0.5951,0.6366,0.6804,0.7492,0.7221,0.3021,0.714,0.7382,0.8858,0.668,0.5836,0.654,0.7248,0.756,0.5925,0.6437,0.6088,0.6443,0.6985,0.4128,0.4520922005176544,0.8089368939399719,0.2402,0.6696,0.4775,0.6639,0.7152,0.7932
431,0.6642,0.348,0.6792,0.7934,0.8144,0.6058,0.6113,0.6179,0.6817,0.7135,0.7078,0.3188,0.7024,0.7439,0.871,0.6781,0.5776,0.6592,0.7324,0.7597,0.5587,0.723,0.6043,0.6456,0.6441,0.4169,0.4501471519470215,0.8100082278251648,0.2473,0.6429,0.5157,0.6526,0.7194,0.7605
432,0.6867,0.3134,0.6869,0.7992,0.8361,0.6143,0.6058,0.6168,0.6761,0.7224,0.6972,0.3374,0.6965,0.7431,0.851,0.6621,0.5879,0.6451,0.7167,0.7493,0.551,0.746,0.6022,0.6347,0.6381,0.4052,0.45039963722229004,0.8085618019104004,0.2543,0.6423,0.5181,0.6495,0.714,0.7594
433,0.7054,0.2924,0.6973,0.8057,0.8545,0.6126,0.641,0.6162,0.6782,0.7178,0.7161,0.3072,0.7081,0.7448,0.8786,0.6766,0.5963,0.6563,0.7334,0.7549,0.5747,0.6871,0.6138,0.6543,0.6657,0.4126,0.44404667615890503,0.8141957521438599,0.2613,0.6571,0.5048,0.6583,0.7233,0.7743
434,0.6757,0.3266,0.685,0.8013,0.825,0.6226,0.5881,0.6247,0.6871,0.731,0.6895,0.3311,0.6924,0.7381,0.8584,0.6766,0.5836,0.6599,0.7286,0.7607,0.5515,0.7396,0.5812,0.6257,0.649,0.4118,0.44223281741142273,0.8141818046569824,0.2683,0.6432,0.5138,0.6486,0.7162,0.7648
435,0.6878,0.3207,0.6856,0.7954,0.8376,0.5997,0.6672,0.6134,0.6743,0.703,0.6921,0.3257,0.6969,0.7532,0.8583,0.6554,0.5988,0.643,0.7236,0.7427,0.562,0.7342,0.6075,0.651,0.6454,0.4122,0.43776100873947144,0.816360354423523,0.2753,0.6394,0.5293,0.6493,0.7195,0.7574
436,0.6646,0.3605,0.6736,0.7887,0.8131,0.6503,0.57,0.6421,0.6902,0.7561,0.6512,0.3777,0.6826,0.7355,0.8157,0.6694,0.5937,0.6516,0.7197,0.7591,0.5408,0.8042,0.5718,0.611,0.6421,0.4142,0.4367409646511078,0.8161808252334595,0.2823,0.6353,0.5412,0.6443,0.709,0.7572
437,0.6925,0.3007,0.69,0.7958,0.8445,0.643,0.5776,0.6365,0.6947,0.7508,0.6703,0.3591,0.6904,0.7493,0.8268,0.6529,0.6127,0.6394,0.7093,0.7446,0.5394,0.8136,0.5825,0.6177,0.6375,0.4148,0.4384084641933441,0.8161987662315369,0.2893,0.6396,0.5327,0.6478,0.7134,0.7608
438,0.6984,0.2957,0.6929,0.8045,0.8469,0.6135,0.6255,0.6145,0.6769,0.7199,0.719,0.3011,0.7109,0.7383,0.8833,0.6894,0.5586,0.6718,0.7275,0.7749,0.5664,0.7016,0.5911,0.6348,0.6609,0.4148,0.43346935510635376,0.8189020156860352,0.2964,0.6573,0.4965,0.6562,0.7164,0.7772
439,0.7214,0.2626,0.707,0.8045,0.8716,0.5955,0.6723,0.6082,0.6714,0.7007,0.7205,0.2982,0.7133,0.7334,0.8869,0.6759,0.5708,0.6573,0.719,0.7665,0.5705,0.6988,0.6047,0.6435,0.6632,0.4159,0.4288369417190552,0.82142573595047,0.3034,0.6568,0.5005,0.6581,0.7144,0.7778
440,0.6888,0.3173,0.6824,0.7885,0.8384,0.6484,0.5707,0.6391,0.7018,0.7564,0.6852,0.3193,0.6933,0.7491,0.8577,0.669,0.5782,0.6578,0.7103,0.7632,0.5667,0.7197,0.6033,0.6409,0.6527,0.4122,0.4242522120475769,0.8234665989875793,0.3104,0.6516,0.501,0.6552,0.7181,0.7737
441,0.7432,0.2482,0.7219,0.8061,0.8895,0.6115,0.6468,0.6181,0.6763,0.7199,0.7146,0.2989,0.7253,0.7077,0.8908,0.6728,0.584,0.6573,0.6987,0.7732,0.5629,0.7214,0.5908,0.6221,0.6672,0.4159,0.4225695729255676,0.8249449133872986,0.3175,0.661,0.4999,0.6627,0.7022,0.7881
442,0.6959,0.3079,0.691,0.8028,0.8444,0.6113,0.6676,0.6186,0.6793,0.7175,0.712,0.3104,0.7061,0.7521,0.8702,0.673,0.5821,0.6601,0.7221,0.7641,0.5631,0.7522,0.6077,0.6408,0.6498,0.4131,0.42431309819221497,0.8233588933944702,0.3245,0.6511,0.524,0.6567,0.7194,0.7692
443,0.6803,0.3362,0.6831,0.7999,0.8281,0.6034,0.6477,0.6146,0.6882,0.7061,0.7059,0.3095,0.7034,0.7571,0.867,0.6647,0.604,0.6506,0.7309,0.7498,0.5731,0.7211,0.613,0.6524,0.6621,0.4202,0.41690197587013245,0.8271035552024841,0.3316,0.6455,0.5237,0.6529,0.7257,0.7626
444,0.7165,0.278,0.7031,0.8109,0.863,0.6476,0.5628,0.6413,0.7055,0.7559,0.6839,0.3207,0.6921,0.7438,0.8567,0.6763,0.5879,0.6649,0.7242,0.7642,0.5606,0.7412,0.5972,0.6398,0.6526,0.4173,0.4164845943450928,0.8278975486755371,0.3387,0.657,0.4981,0.6597,0.7248,0.7785
445,0.676,0.3414,0.6853,0.8021,0.8251,0.6372,0.598,0.6359,0.6988,0.744,0.6595,0.3543,0.6888,0.7489,0.8228,0.6644,0.6106,0.656,0.7218,0.753,0.5511,0.7856,0.6033,0.6432,0.6347,0.4122,0.41695213317871094,0.8278197646141052,0.3457,0.6376,0.538,0.6539,0.723,0.7559
446,0.7181,0.2698,0.7042,0.8041,0.8679,0.6394,0.622,0.6369,0.6797,0.7441,0.7178,0.2978,0.7094,0.7448,0.8827,0.6676,0.5846,0.6492,0.7186,0.7588,0.5728,0.6985,0.5952,0.6312,0.676,0.4103,0.41707146167755127,0.8279155492782593,0.3527,0.6631,0.4945,0.659,0.7157,0.7859
447,0.6993,0.3149,0.69,0.8031,0.845,0.635,0.5908,0.6327,0.7005,0.7431,0.7043,0.3186,0.7023,0.7557,0.8627,0.6545,0.612,0.6465,0.715,0.7409,0.5662,0.747,0.6029,0.6472,0.656,0.4126,0.41281598806381226,0.8279773592948914,0.3597,0.6519,0.5167,0.6549,0.7243,0.7695
448,0.718,0.2741,0.704,0.8052,0.867,0.628,0.6397,0.6265,0.6807,0.7332,0.7231,0.3,0.7148,0.7426,0.8809,0.6603,0.6187,0.6457,0.7121,0.7488,0.565,0.7313,0.5878,0.6212,0.6732,0.4158,0.4114595353603363,0.8294876217842102,0.3668,0.6589,0.5128,0.6558,0.7124,0.7806
449,0.7237,0.2674,0.7074,0.8115,0.8695,0.6529,0.5727,0.6436,0.6998,0.7595,0.6857,0.3218,0.695,0.7515,0.854,0.6625,0.605,0.6474,0.7227,0.7511,0.5608,0.7615,0.6023,0.6428,0.6481,0.4078,0.40378594398498535,0.8334776163101196,0.3737,0.6571,0.5057,0.6591,0.7257,0.7764
450,0.7142,0.2847,0.6991,0.8063,0.8594,0.6215,0.6173,0.6226,0.6865,0.7279,0.6977,0.3121,0.6982,0.7478,0.867,0.6563,0.6047,0.649,0.7032,0.7499,0.5632,0.7583,0.6095,0.6502,0.6476,0.4108,0.40563666820526123,0.8320731520652771,0.3807,0.6506,0.5154,0.6557,0.7188,0.7704
451,0.7125,0.2841,0.699,0.8078,0.8581,0.607,0.6594,0.6149,0.6833,0.7096,0.7291,0.2837,0.7304,0.7279,0.8943,0.6755,0.5913,0.6608,0.724,0.7622,0.5677,0.7393,0.5972,0.6402,0.6634,0.4146,0.40912264585494995,0.8293359875679016,0.3877,0.6584,0.5116,0.6605,0.7166,0.7775
452,0.7329,0.2576,0.7156,0.8233,0.8762,0.599,0.6489,0.6155,0.6838,0.7031,0.7133,0.306,0.7077,0.7564,0.868,0.6576,0.6112,0.6429,0.7167,0.7446,0.5674,0.7442,0.6026,0.6497,0.6577,0.4138,0.40637362003326416,0.832482099533081,0.3947,0.654,0.5136,0.6569,0.726,0.7699
453,0.7127,0.2824,0.703,0.8184,0.8582,0.5964,0.6646,0.6124,0.6829,0.6994,0.6853,0.3202,0.6963,0.756,0.8523,0.6624,0.6129,0.656,0.7249,0.7481,0.5687,0.7481,0.6064,0.6547,0.6562,0.4147,0.4022156894207001,0.8338167667388916,0.4018,0.6451,0.5256,0.6548,0.7274,0.7628
