epoch,Alessandro-cleaned-data_val_dice,Alessandro-cleaned-data_val_loss,Alessandro-cleaned-data_val_precision,Alessandro-cleaned-data_val_recall,Alessandro-cleaned-data_val_sparse_categorical_accuracy,Antoine-cleaned-data_val_dice,Antoine-cleaned-data_val_loss,Antoine-cleaned-data_val_precision,Antoine-cleaned-data_val_recall,Antoine-cleaned-data_val_sparse_categorical_accuracy,Kornum-cleaned-data_v2_val_dice,Kornum-cleaned-data_v2_val_loss,Kornum-cleaned-data_v2_val_precision,Kornum-cleaned-data_v2_val_recall,Kornum-cleaned-data_v2_val_sparse_categorical_accuracy,Maiken-cleaned-data_val_dice,Maiken-cleaned-data_val_loss,Maiken-cleaned-data_val_precision,Maiken-cleaned-data_val_recall,Maiken-cleaned-data_val_sparse_categorical_accuracy,Sebastian-cleaned-data_val_dice,Sebastian-cleaned-data_val_loss,Sebastian-cleaned-data_val_precision,Sebastian-cleaned-data_val_recall,Sebastian-cleaned-data_val_sparse_categorical_accuracy,epoch_minutes,loss,sparse_categorical_accuracy,train_hours,val_dice,val_loss,val_precision,val_recall,val_sparse_categorical_accuracy
0,0.1846,1.0512,0.4609,0.3334,0.3827,0.3661,1.0373,0.4147,0.39,0.5474,0.2206,1.048,0.5853,0.3467,0.4781,0.3996,0.997,0.6645,0.4132,0.6306,0.3076,1.0382,0.4758,0.3814,0.5189,1.2102,1.0754395723342896,0.3834967911243438,0.0202,0.2957,1.0343,0.5202,0.3729,0.5115
1,0.3946,0.9917,0.4944,0.4541,0.5912,0.4389,0.9791,0.5075,0.4578,0.6494,0.4753,1.0119,0.5136,0.514,0.6283,0.5373,0.9592,0.5645,0.5366,0.7333,0.4588,0.9774,0.5178,0.4888,0.6781,0.4144,1.0465631484985352,0.4612627029418945,0.0272,0.461,0.9839,0.5196,0.4903,0.6561
2,0.5668,0.9144,0.5648,0.5942,0.8339,0.4939,0.9205,0.5363,0.509,0.7215,0.5421,0.9647,0.5414,0.5723,0.7032,0.548,0.9159,0.6659,0.5643,0.7678,0.5247,0.9034,0.5324,0.5453,0.7634,0.8941,1.0109820365905762,0.5565229058265686,0.0421,0.5351,0.9238,0.5682,0.557,0.758
3,0.5939,0.8376,0.5826,0.6167,0.8757,0.5262,0.8713,0.5778,0.5399,0.7639,0.5585,0.9219,0.5494,0.5868,0.7231,0.534,0.8796,0.5625,0.5637,0.7731,0.5451,0.8366,0.5378,0.5641,0.7926,0.6842,0.9743619561195374,0.5826895833015442,0.0536,0.5515,0.8694,0.562,0.5742,0.7857
4,0.6012,0.7666,0.5877,0.622,0.8872,0.5394,0.8306,0.5914,0.5515,0.7779,0.5635,0.8843,0.5516,0.5909,0.7279,0.5222,0.85,0.5244,0.559,0.7646,0.5517,0.7808,0.5396,0.5703,0.8027,0.5691,0.9381442666053772,0.5869688987731934,0.0632,0.5556,0.8225,0.5589,0.5787,0.7921
5,0.604,0.7076,0.5897,0.6234,0.8917,0.5449,0.7976,0.5757,0.5557,0.7822,0.5664,0.8545,0.5528,0.5932,0.7308,0.5147,0.8289,0.5248,0.555,0.7556,0.5545,0.7386,0.5408,0.5728,0.8069,0.4964,0.906832993030548,0.5884252786636353,0.0716,0.5569,0.7854,0.5568,0.58,0.7934
6,0.6052,0.6575,0.5907,0.6239,0.8938,0.5465,0.7718,0.5755,0.5556,0.7797,0.5682,0.8279,0.5535,0.5946,0.7332,0.5105,0.8117,0.5273,0.5522,0.7488,0.5555,0.7053,0.5413,0.5738,0.8084,0.4541,0.8831449747085571,0.5880841612815857,0.0793,0.5572,0.7548,0.5577,0.58,0.7928
7,0.6056,0.6248,0.591,0.6241,0.8944,0.5486,0.7562,0.5683,0.5553,0.7758,0.5692,0.8111,0.7765,0.5955,0.7353,0.512,0.8009,0.5354,0.5519,0.7456,0.5569,0.685,0.876,0.5752,0.8101,0.4365,0.8650062680244446,0.5882916450500488,0.0868,0.5585,0.7356,0.6694,0.5804,0.7922
8,0.6057,0.5964,0.5911,0.6237,0.8949,0.5532,0.7446,0.5691,0.557,0.7724,0.5715,0.7966,0.6663,0.5972,0.7381,0.5097,0.7959,0.5238,0.5495,0.7399,0.558,0.6703,0.6764,0.576,0.8113,0.4247,0.8486425876617432,0.5890576839447021,0.094,0.5596,0.7208,0.6053,0.5807,0.7913
9,0.6059,0.5767,0.9245,0.6239,0.895,0.5522,0.7356,0.5625,0.555,0.7665,0.5723,0.7853,0.6714,0.5978,0.74,0.5131,0.7885,0.5241,0.5504,0.7383,0.5585,0.6581,0.5444,0.5769,0.8128,0.4165,0.839566707611084,0.5896422266960144,0.1012,0.5604,0.7088,0.6454,0.5808,0.7905
10,0.6058,0.5551,0.7576,0.6231,0.895,0.5535,0.727,0.5619,0.5553,0.7635,0.5749,0.7709,0.6582,0.5993,0.7423,0.5112,0.7855,0.5183,0.5493,0.7364,0.5587,0.6481,0.5718,0.5769,0.8128,0.4127,0.8271669745445251,0.5939754247665405,0.1082,0.5608,0.6973,0.6136,0.5808,0.79
11,0.6062,0.5449,0.7577,0.6234,0.895,0.5568,0.7218,0.5635,0.5575,0.7623,0.5768,0.7643,0.6586,0.6004,0.7445,0.5186,0.7797,0.5284,0.5533,0.74,0.56,0.643,0.5885,0.5779,0.8137,0.403,0.8229008913040161,0.5907694101333618,0.115,0.5637,0.6907,0.6193,0.5825,0.7911
12,0.6064,0.5364,0.7161,0.6234,0.8952,0.5575,0.7211,0.5615,0.5575,0.7552,0.5797,0.7598,0.662,0.6018,0.7467,0.5192,0.7805,0.5237,0.5525,0.7359,0.5621,0.6394,0.597,0.5794,0.8152,0.405,0.8183425068855286,0.5912801623344421,0.1219,0.565,0.6874,0.6121,0.5829,0.7896
13,0.607,0.5271,0.6994,0.623,0.8946,0.559,0.7173,0.5622,0.5587,0.7538,0.5847,0.7529,0.6692,0.6039,0.7477,0.5228,0.7786,0.5274,0.5549,0.7369,0.5636,0.6361,0.6032,0.5802,0.8158,0.409,0.8116815686225891,0.5888262987136841,0.1288,0.5674,0.6824,0.6123,0.5841,0.7898
14,0.6068,0.517,0.7125,0.6228,0.8943,0.5567,0.7122,0.5609,0.5568,0.7542,0.5828,0.7451,0.665,0.6034,0.7496,0.5241,0.7735,0.5303,0.5561,0.7415,0.5643,0.6289,0.605,0.5815,0.818,0.3999,0.8061200380325317,0.5928223133087158,0.1356,0.5669,0.6753,0.6147,0.5841,0.7915
15,0.6101,0.5134,0.7226,0.6243,0.894,0.5612,0.7098,0.5642,0.5608,0.7539,0.5879,0.742,0.6683,0.6057,0.7508,0.5283,0.7721,0.5333,0.5584,0.7421,0.5673,0.6277,0.6063,0.5829,0.8184,0.4033,0.8049020767211914,0.5919005870819092,0.1425,0.571,0.673,0.6189,0.5864,0.7918
16,0.6088,0.5059,0.7109,0.6237,0.8938,0.5625,0.7047,0.5671,0.5618,0.7585,0.5863,0.7353,0.6673,0.6052,0.752,0.5288,0.7667,0.5346,0.5593,0.7482,0.5668,0.6232,0.6086,0.5837,0.8204,0.406,0.8000160455703735,0.5959504842758179,0.1494,0.5706,0.6672,0.6177,0.5867,0.7946
17,0.6156,0.4994,0.7136,0.6259,0.8929,0.5638,0.7044,0.5672,0.5632,0.7548,0.5918,0.7284,0.6673,0.6077,0.7528,0.5295,0.7692,0.5355,0.5596,0.7459,0.5709,0.6209,0.6173,0.5849,0.8194,0.4,0.7964867949485779,0.5955215692520142,0.1561,0.5743,0.6645,0.6202,0.5883,0.7932
18,0.6133,0.499,0.7153,0.6255,0.893,0.5653,0.7018,0.5701,0.5643,0.7594,0.5892,0.7271,0.6649,0.6067,0.7539,0.5353,0.7622,0.5447,0.563,0.7537,0.5694,0.6203,0.6056,0.5853,0.8216,0.4034,0.7976604104042053,0.5942646861076355,0.163,0.5745,0.6621,0.6201,0.589,0.7963
19,0.6184,0.4946,0.6987,0.6272,0.8919,0.5673,0.7001,0.5716,0.5662,0.759,0.5937,0.7214,0.6634,0.6087,0.7544,0.5347,0.763,0.5415,0.5629,0.7537,0.5724,0.6176,0.6114,0.5866,0.8216,0.4031,0.7969303727149963,0.5927525162696838,0.1698,0.5773,0.6593,0.6173,0.5903,0.7961
20,0.6261,0.4941,0.6873,0.6305,0.8899,0.5671,0.7016,0.5705,0.5661,0.756,0.5983,0.7198,0.6592,0.6107,0.7553,0.5371,0.7645,0.5426,0.5636,0.7521,0.5759,0.6184,0.6152,0.5883,0.8218,0.3982,0.7935242652893066,0.5943964123725891,0.1766,0.5809,0.6597,0.615,0.5918,0.795
21,0.6387,0.4939,0.6794,0.6373,0.887,0.5692,0.7027,0.5713,0.5685,0.7539,0.6027,0.7182,0.6481,0.6122,0.7552,0.5402,0.7657,0.5437,0.5652,0.7507,0.5795,0.6198,0.6112,0.5895,0.8205,0.4183,0.7891553044319153,0.5973370671272278,0.1837,0.5861,0.6601,0.6107,0.5945,0.7935
22,0.6269,0.4877,0.6851,0.6308,0.8893,0.5684,0.6973,0.5739,0.5672,0.7616,0.5983,0.7115,0.6593,0.611,0.757,0.539,0.7598,0.5461,0.5652,0.7582,0.575,0.6154,0.613,0.5887,0.8239,0.3908,0.7852959632873535,0.6000562310218811,0.1903,0.5815,0.6543,0.6155,0.5926,0.798
23,0.6316,0.4877,0.6807,0.6332,0.8877,0.5698,0.6963,0.575,0.5685,0.7627,0.6001,0.7096,0.6531,0.6116,0.7571,0.5415,0.7583,0.5476,0.5665,0.76,0.5759,0.6157,0.6101,0.5892,0.824,0.3998,0.785097599029541,0.5985559821128845,0.1971,0.5838,0.6535,0.6133,0.5938,0.7983
24,0.6443,0.4861,0.6739,0.6406,0.8837,0.5674,0.6981,0.572,0.5665,0.7584,0.6047,0.7065,0.6437,0.6131,0.7571,0.5424,0.7631,0.5481,0.5665,0.7545,0.5781,0.6147,0.6092,0.5902,0.824,0.3989,0.783055305480957,0.6000722050666809,0.2039,0.5874,0.6537,0.6094,0.5954,0.7955
25,0.6362,0.4827,0.673,0.635,0.885,0.5657,0.6946,0.5727,0.5651,0.7638,0.6021,0.7017,0.6469,0.6124,0.7585,0.5409,0.7598,0.5461,0.5658,0.7595,0.5764,0.6129,0.6135,0.5902,0.8259,0.3979,0.7837242484092712,0.5996931791305542,0.2107,0.5843,0.6503,0.6104,0.5937,0.7985
26,0.6356,0.482,0.6724,0.6348,0.885,0.568,0.6916,0.5766,0.5674,0.7693,0.6023,0.6985,0.6453,0.6125,0.7597,0.5429,0.7556,0.5496,0.5671,0.7637,0.5761,0.6134,0.6156,0.5904,0.8264,0.4056,0.7772447466850281,0.6022966504096985,0.2175,0.585,0.6482,0.6119,0.5944,0.8008
27,0.6406,0.4789,0.6695,0.6376,0.8828,0.5627,0.6896,0.5709,0.5633,0.7662,0.605,0.6935,0.6418,0.6135,0.7594,0.5406,0.7571,0.5454,0.5658,0.7614,0.5765,0.6105,0.6141,0.591,0.8275,0.3997,0.7807347774505615,0.6009001731872559,0.2243,0.5851,0.6459,0.6083,0.5942,0.7995
28,0.6442,0.4835,0.6669,0.6409,0.8813,0.5654,0.6884,0.5717,0.5657,0.7674,0.6083,0.6948,0.6393,0.6151,0.7605,0.5484,0.7529,0.5551,0.5703,0.767,0.5779,0.6152,0.6152,0.5914,0.8268,0.4017,0.776846170425415,0.6018038988113403,0.2311,0.5888,0.647,0.6096,0.5967,0.8006
29,0.6389,0.4802,0.6668,0.6371,0.8828,0.5673,0.6823,0.5731,0.5681,0.7723,0.6058,0.6887,0.6379,0.614,0.762,0.5464,0.7477,0.5534,0.5695,0.7713,0.5785,0.613,0.6133,0.5919,0.8273,0.4008,0.7725234627723694,0.6043695211410522,0.2379,0.5874,0.6424,0.6089,0.5961,0.8031
30,0.6387,0.4786,0.6663,0.6366,0.8822,0.5665,0.68,0.5705,0.5677,0.7685,0.6065,0.6848,0.637,0.6143,0.763,0.5471,0.7454,0.5556,0.5698,0.7717,0.5809,0.6137,0.6082,0.5927,0.8267,0.4001,0.7729913592338562,0.6011195778846741,0.2447,0.5879,0.6405,0.6075,0.5962,0.8024
31,0.6324,0.4763,0.6676,0.633,0.8846,0.5662,0.6766,0.5713,0.5679,0.7689,0.6046,0.6799,0.6429,0.6146,0.7664,0.5441,0.739,0.5517,0.5685,0.7756,0.5814,0.6125,0.6083,0.593,0.8267,0.4084,0.7698179483413696,0.603176474571228,0.2516,0.5857,0.6369,0.6084,0.5954,0.8044
32,0.637,0.4777,0.6654,0.636,0.8831,0.5681,0.6765,0.5732,0.5699,0.7662,0.6077,0.6787,0.6376,0.6156,0.7666,0.5448,0.7365,0.5548,0.5691,0.7763,0.585,0.6149,0.6105,0.5943,0.8253,0.3996,0.7660220265388489,0.604285717010498,0.2584,0.5885,0.6369,0.6083,0.597,0.8035
33,0.6371,0.4747,0.6623,0.6358,0.8822,0.5708,0.6707,0.5771,0.5722,0.7745,0.6089,0.6742,0.6368,0.6159,0.7669,0.5409,0.7337,0.5464,0.5673,0.7773,0.583,0.6137,0.6084,0.5935,0.826,0.3998,0.7689135670661926,0.6045390963554382,0.2652,0.5881,0.6334,0.6062,0.5969,0.8054
34,0.6363,0.4712,0.6623,0.6351,0.8826,0.5707,0.6687,0.5779,0.5722,0.7751,0.6089,0.671,0.6379,0.616,0.7668,0.5401,0.7328,0.5464,0.5672,0.7778,0.5851,0.6123,0.6141,0.595,0.8269,0.4015,0.7627997994422913,0.6079964637756348,0.272,0.5882,0.6312,0.6077,0.5971,0.8058
35,0.6286,0.4689,0.6655,0.6309,0.8859,0.5728,0.6643,0.5856,0.5744,0.7842,0.6035,0.6676,0.6443,0.6149,0.7705,0.5378,0.7284,0.5448,0.5669,0.7813,0.5817,0.6107,0.6136,0.5941,0.8289,0.4003,0.7634212970733643,0.6093889474868774,0.2788,0.5849,0.628,0.6108,0.5962,0.8102
36,0.6313,0.4672,0.664,0.6322,0.8849,0.5718,0.665,0.5834,0.5732,0.7802,0.6059,0.6662,0.6431,0.6158,0.7702,0.5388,0.7291,0.5479,0.5672,0.7807,0.585,0.6117,0.6171,0.5953,0.8278,0.4048,0.7612386345863342,0.6092672944068909,0.2857,0.5866,0.6278,0.6111,0.5967,0.8088
37,0.638,0.4678,0.6625,0.6364,0.8829,0.573,0.6644,0.5839,0.574,0.7781,0.6101,0.6651,0.6382,0.6172,0.7695,0.5402,0.729,0.5496,0.5676,0.779,0.5903,0.6121,0.6212,0.5977,0.8266,0.4016,0.7655495405197144,0.6064802408218384,0.2925,0.5903,0.6277,0.6111,0.5986,0.8072
38,0.64,0.4641,0.6621,0.6376,0.8819,0.5719,0.6617,0.5832,0.573,0.7757,0.6121,0.6613,0.6386,0.618,0.7689,0.54,0.7283,0.5488,0.5678,0.7786,0.5909,0.6104,0.6202,0.5979,0.8263,0.4045,0.7575213313102722,0.6116573214530945,0.2993,0.591,0.6252,0.6106,0.5989,0.8063
39,0.6432,0.4632,0.6606,0.64,0.88,0.5759,0.6598,0.5861,0.5764,0.778,0.6145,0.66,0.6375,0.6189,0.7681,0.5395,0.729,0.5435,0.5674,0.7772,0.5923,0.6113,0.6189,0.5983,0.8252,0.4019,0.7584089040756226,0.6091814637184143,0.3062,0.5931,0.6247,0.6093,0.6002,0.8057
40,0.6343,0.4624,0.6623,0.6342,0.8845,0.5757,0.6539,0.5916,0.5774,0.7908,0.6068,0.6583,0.6413,0.6166,0.7725,0.5399,0.7249,0.5563,0.5684,0.7816,0.5874,0.6107,0.6234,0.597,0.8287,0.3994,0.7554080486297607,0.6133031845092773,0.313,0.5888,0.622,0.615,0.5987,0.8116
41,0.6465,0.4638,0.6599,0.6432,0.8786,0.5808,0.6545,0.5913,0.5808,0.785,0.6174,0.6588,0.6373,0.6207,0.7694,0.5416,0.7272,0.5467,0.568,0.7765,0.5925,0.6133,0.6182,0.5983,0.8246,0.3941,0.757078230381012,0.6097320914268494,0.3198,0.5958,0.6235,0.6107,0.6022,0.8068
42,0.6364,0.4548,0.6623,0.6349,0.8838,0.5694,0.6505,0.5868,0.5722,0.7854,0.6082,0.6512,0.641,0.6168,0.7715,0.538,0.7241,0.5533,0.5678,0.779,0.59,0.6045,0.6251,0.5986,0.8297,0.3978,0.7577444314956665,0.6128683090209961,0.3265,0.5884,0.617,0.6137,0.5981,0.8099
43,0.6417,0.4572,0.6608,0.6389,0.8817,0.574,0.6496,0.5898,0.5756,0.7867,0.6124,0.6529,0.6396,0.6187,0.7716,0.5395,0.7245,0.5507,0.568,0.7782,0.5926,0.6077,0.6241,0.5995,0.8281,0.3979,0.7533703446388245,0.6125311255455017,0.3333,0.592,0.6184,0.613,0.6001,0.8093
44,0.6446,0.4554,0.6587,0.6411,0.8791,0.5759,0.6495,0.5898,0.577,0.7853,0.6162,0.6512,0.6384,0.6202,0.7702,0.5391,0.7261,0.5458,0.5672,0.775,0.594,0.6085,0.6212,0.5997,0.8264,0.4009,0.7532184720039368,0.61412113904953,0.3401,0.594,0.6181,0.6108,0.601,0.8072
45,0.6499,0.4568,0.66,0.6461,0.877,0.5771,0.6484,0.5895,0.5778,0.7844,0.6202,0.6513,0.6389,0.6225,0.7704,0.5416,0.7255,0.5481,0.5684,0.7752,0.5969,0.6104,0.6241,0.6012,0.8257,0.4055,0.7529101967811584,0.6139954924583435,0.347,0.5971,0.6185,0.6121,0.6032,0.8065
46,0.6436,0.4538,0.6617,0.6404,0.8815,0.5733,0.645,0.5898,0.5752,0.7871,0.6139,0.648,0.6418,0.62,0.7734,0.5402,0.7221,0.5503,0.5685,0.7781,0.5946,0.6075,0.6266,0.6005,0.8275,0.4068,0.7520096898078918,0.6156473159790039,0.3539,0.5931,0.6153,0.614,0.6009,0.8095
47,0.6477,0.4518,0.66,0.6438,0.8784,0.5776,0.6436,0.5927,0.5787,0.7891,0.6175,0.6463,0.6389,0.6211,0.7714,0.5406,0.7236,0.5485,0.568,0.7744,0.5979,0.607,0.6277,0.6021,0.8266,0.4008,0.7510846853256226,0.6161081790924072,0.3607,0.5963,0.6145,0.6136,0.6027,0.808
48,0.6556,0.4539,0.6595,0.6531,0.8726,0.5834,0.644,0.5944,0.583,0.7865,0.6258,0.6469,0.6388,0.6259,0.7687,0.5461,0.7253,0.5554,0.5701,0.7703,0.6036,0.6097,0.6283,0.605,0.8232,0.3952,0.7510882616043091,0.6158528327941895,0.3675,0.6029,0.616,0.6153,0.6074,0.8043
49,0.6576,0.4534,0.6594,0.6562,0.8705,0.5812,0.6439,0.5923,0.5811,0.7831,0.6269,0.646,0.6381,0.6267,0.7686,0.5465,0.7247,0.5545,0.5703,0.7693,0.605,0.6096,0.6288,0.6057,0.8224,0.4036,0.7521011829376221,0.6166129112243652,0.3744,0.6034,0.6155,0.6146,0.608,0.8028
50,0.6612,0.4536,0.6593,0.6633,0.8663,0.5852,0.6411,0.5928,0.5848,0.785,0.6307,0.6454,0.6382,0.6297,0.7668,0.551,0.7249,0.5591,0.5722,0.7651,0.6089,0.6111,0.6289,0.608,0.819,0.3975,0.7484285831451416,0.6178757548332214,0.3811,0.6074,0.6152,0.6157,0.6116,0.8004
51,0.658,0.4499,0.6595,0.6569,0.8703,0.5839,0.6376,0.5943,0.5836,0.7881,0.6266,0.6418,0.638,0.6264,0.7689,0.5473,0.7228,0.555,0.5704,0.7661,0.6057,0.6073,0.6288,0.6061,0.8217,0.3987,0.7484853863716125,0.6181670427322388,0.3879,0.6043,0.6119,0.6151,0.6087,0.803
52,0.6601,0.4485,0.6595,0.6608,0.8677,0.5828,0.6373,0.5941,0.5825,0.7862,0.6296,0.6408,0.6388,0.6287,0.7677,0.548,0.7236,0.5563,0.571,0.7637,0.6088,0.6057,0.6309,0.6083,0.8217,0.4063,0.7451719641685486,0.6203316450119019,0.3948,0.6059,0.6112,0.6159,0.6103,0.8014
53,0.6623,0.449,0.6571,0.6727,0.8569,0.5814,0.64,0.5902,0.5814,0.7783,0.6333,0.6414,0.636,0.6325,0.7626,0.5504,0.7263,0.5545,0.5716,0.7581,0.6132,0.6064,0.6278,0.6113,0.8162,0.4009,0.7507140636444092,0.6180294156074524,0.4016,0.6081,0.6126,0.6131,0.6139,0.7944
54,0.6594,0.4507,0.6595,0.6594,0.8699,0.581,0.6347,0.5934,0.5811,0.7868,0.6277,0.6407,0.6391,0.6277,0.7709,0.5519,0.7198,0.561,0.5733,0.7678,0.6076,0.6092,0.6318,0.6075,0.8217,0.4001,0.7451117038726807,0.6218518614768982,0.4083,0.6055,0.611,0.617,0.6098,0.8034
55,0.6623,0.4497,0.6565,0.6749,0.8554,0.5857,0.6368,0.5936,0.5851,0.7836,0.633,0.6407,0.6352,0.6325,0.7633,0.5527,0.7245,0.5558,0.5728,0.7576,0.6138,0.6086,0.628,0.6118,0.8149,0.3999,0.7494128346443176,0.618416428565979,0.4151,0.6095,0.6121,0.6138,0.6154,0.795
56,0.6621,0.45,0.6579,0.6679,0.8628,0.587,0.634,0.5966,0.5864,0.7909,0.6324,0.6402,0.6388,0.6315,0.7685,0.5526,0.7218,0.5578,0.573,0.7635,0.6112,0.6112,0.6304,0.6098,0.8182,0.4005,0.7456690669059753,0.6218000054359436,0.4219,0.6091,0.6114,0.6163,0.6137,0.8008
57,0.6617,0.4503,0.6554,0.6829,0.8481,0.5852,0.6377,0.5941,0.5846,0.7811,0.6353,0.641,0.6351,0.6361,0.7614,0.5562,0.7251,0.558,0.5746,0.7556,0.6147,0.6098,0.6269,0.6127,0.8129,0.3993,0.7488453984260559,0.6175127029418945,0.4287,0.6106,0.6128,0.6139,0.6182,0.7918
58,0.6608,0.4492,0.6547,0.6829,0.8468,0.5853,0.6363,0.5937,0.5847,0.7814,0.6348,0.6395,0.6347,0.6355,0.7609,0.5583,0.7249,0.56,0.5758,0.7545,0.6146,0.6099,0.6262,0.6126,0.8118,0.3991,0.7469320297241211,0.619645357131958,0.4355,0.6108,0.612,0.6139,0.6183,0.7911
59,0.6615,0.4476,0.6553,0.68,0.85,0.5907,0.6328,0.5988,0.5895,0.7866,0.6346,0.6378,0.6355,0.6346,0.7625,0.5565,0.7235,0.5583,0.5747,0.756,0.6149,0.609,0.6272,0.6129,0.8126,0.3992,0.7408125400543213,0.6230568289756775,0.4422,0.6116,0.6101,0.615,0.6183,0.7935
60,0.6591,0.4461,0.6538,0.684,0.8436,0.589,0.6331,0.5971,0.5881,0.7829,0.6357,0.6365,0.6349,0.6368,0.7586,0.5566,0.7249,0.5561,0.5746,0.7508,0.6167,0.6045,0.6265,0.6146,0.8114,0.4051,0.7440118789672852,0.6209660768508911,0.4491,0.6114,0.609,0.6137,0.6196,0.7895
61,0.6604,0.4461,0.6546,0.6783,0.8502,0.5891,0.6307,0.5992,0.588,0.7886,0.6347,0.6359,0.636,0.6345,0.7631,0.5548,0.7225,0.5564,0.5738,0.7557,0.6156,0.6068,0.629,0.6134,0.8143,0.4053,0.7438328266143799,0.6240862607955933,0.456,0.6109,0.6084,0.615,0.6176,0.7944
62,0.6618,0.4426,0.6564,0.6743,0.8555,0.5858,0.6284,0.5988,0.5852,0.7903,0.6328,0.6328,0.6362,0.632,0.7648,0.5517,0.721,0.5537,0.5724,0.7578,0.614,0.6029,0.6309,0.6121,0.8179,0.3984,0.7399806976318359,0.6238508820533752,0.4627,0.6092,0.6055,0.6152,0.6152,0.7973
63,0.6606,0.4463,0.6545,0.6798,0.8494,0.5907,0.6277,0.6013,0.5893,0.7912,0.6349,0.6353,0.636,0.635,0.7629,0.5556,0.7208,0.5552,0.5738,0.7572,0.6149,0.6085,0.6286,0.6128,0.8138,0.4018,0.7418978810310364,0.6220772862434387,0.4696,0.6113,0.6077,0.6151,0.6181,0.7949
64,0.6553,0.4433,0.652,0.6876,0.8363,0.5914,0.6317,0.6012,0.59,0.784,0.6352,0.634,0.6334,0.6378,0.7544,0.5571,0.7258,0.5543,0.5751,0.7465,0.6171,0.6029,0.6252,0.6154,0.8093,0.4073,0.7423995137214661,0.622611939907074,0.4765,0.6112,0.6075,0.6132,0.6212,0.7861
65,0.6614,0.4452,0.6552,0.6797,0.8509,0.5943,0.6248,0.6047,0.5925,0.7937,0.6352,0.6331,0.637,0.635,0.7639,0.5575,0.7191,0.5571,0.575,0.7568,0.6171,0.6066,0.6306,0.6148,0.8137,0.3963,0.7415387630462646,0.6238967776298523,0.4832,0.6131,0.6058,0.6169,0.6194,0.7958
66,0.6556,0.445,0.6517,0.6872,0.8371,0.597,0.627,0.6034,0.5955,0.7883,0.6352,0.6334,0.6338,0.6372,0.7565,0.5619,0.7226,0.5582,0.5776,0.7479,0.6166,0.6069,0.6244,0.6151,0.8067,0.3985,0.7455250024795532,0.620708703994751,0.49,0.6133,0.607,0.6143,0.6225,0.7873
67,0.6564,0.4453,0.6522,0.6875,0.8383,0.5999,0.6257,0.6072,0.5978,0.7911,0.6356,0.6334,0.6342,0.6377,0.7573,0.5622,0.722,0.5588,0.5776,0.7488,0.617,0.6083,0.6254,0.6154,0.8067,0.4074,0.7391436696052551,0.6247665882110596,0.4969,0.6142,0.6069,0.6156,0.6232,0.7884
68,0.6612,0.4417,0.6552,0.6784,0.8517,0.5873,0.6234,0.6036,0.5863,0.7927,0.6352,0.6302,0.6374,0.6347,0.764,0.5579,0.718,0.5585,0.5754,0.7577,0.6141,0.6038,0.6308,0.6121,0.817,0.3967,0.7370651364326477,0.626332700252533,0.5036,0.6111,0.6034,0.6171,0.6174,0.7966
69,0.6573,0.4425,0.6524,0.6837,0.8422,0.5954,0.624,0.6068,0.5933,0.7929,0.6361,0.6315,0.6356,0.6373,0.7589,0.5612,0.7203,0.5588,0.577,0.7522,0.6155,0.6062,0.6264,0.6136,0.8102,0.3974,0.7342880368232727,0.6262907981872559,0.5103,0.6131,0.6049,0.616,0.621,0.7913
70,0.6525,0.4457,0.6516,0.6984,0.8267,0.5998,0.6272,0.6068,0.5981,0.7865,0.6342,0.6346,0.6317,0.6401,0.7499,0.5621,0.7248,0.5556,0.5773,0.7422,0.615,0.6094,0.6204,0.6146,0.7999,0.4009,0.7404363751411438,0.6222628355026245,0.5172,0.6127,0.6083,0.6132,0.6257,0.781
71,0.6571,0.4389,0.6524,0.6811,0.8438,0.5955,0.6222,0.6082,0.5933,0.7939,0.6359,0.6288,0.636,0.6363,0.7596,0.5581,0.7204,0.5551,0.5752,0.7514,0.6168,0.6021,0.628,0.6147,0.812,0.4037,0.7346030473709106,0.6293850541114807,0.524,0.6127,0.6025,0.6159,0.6201,0.7921
72,0.6573,0.4428,0.6525,0.686,0.8409,0.601,0.6219,0.6118,0.5982,0.7948,0.6365,0.6312,0.6358,0.6379,0.7586,0.5609,0.7205,0.557,0.5764,0.7513,0.6157,0.6078,0.6254,0.614,0.8075,0.3963,0.7397517561912537,0.6240922808647156,0.5307,0.6143,0.6048,0.6165,0.6225,0.7906
73,0.6567,0.4407,0.6521,0.6833,0.8418,0.5913,0.6217,0.6063,0.5896,0.792,0.6363,0.629,0.636,0.6371,0.7589,0.5607,0.7193,0.5572,0.5766,0.751,0.6148,0.6026,0.6256,0.613,0.8113,0.4018,0.7362131476402283,0.6273900270462036,0.5376,0.612,0.6027,0.6154,0.6199,0.791
74,0.6488,0.4439,0.6502,0.6994,0.8214,0.6008,0.6274,0.609,0.5988,0.7858,0.6342,0.6329,0.6316,0.6417,0.7467,0.5637,0.7267,0.5565,0.5792,0.7389,0.6126,0.6084,0.6169,0.6129,0.7959,0.4015,0.7397620677947998,0.6232842803001404,0.5444,0.612,0.6079,0.6128,0.6264,0.7777
75,0.6511,0.4426,0.6505,0.6948,0.8269,0.604,0.624,0.6118,0.6017,0.7899,0.6348,0.6307,0.6324,0.6399,0.7502,0.5646,0.7242,0.5581,0.5797,0.7425,0.6133,0.6079,0.6184,0.6132,0.7982,0.3984,0.7383601665496826,0.6251735687255859,0.5511,0.6136,0.6059,0.6142,0.6259,0.7815
76,0.6567,0.4408,0.6523,0.687,0.8394,0.6014,0.6184,0.6132,0.5984,0.7965,0.6361,0.6282,0.6352,0.6377,0.7578,0.5629,0.7192,0.5585,0.5777,0.7503,0.6141,0.6071,0.6232,0.6126,0.8063,0.3996,0.732389509677887,0.6311267018318176,0.5579,0.6142,0.6027,0.6165,0.6227,0.7901
77,0.6545,0.4384,0.6519,0.6898,0.8346,0.5934,0.6213,0.6078,0.5913,0.7906,0.6358,0.6272,0.634,0.6384,0.7548,0.5599,0.721,0.5539,0.5763,0.746,0.6142,0.6014,0.622,0.6128,0.8072,0.3987,0.7381566166877747,0.6246368885040283,0.5647,0.6116,0.6019,0.6139,0.6217,0.7866
78,0.6505,0.4418,0.6509,0.6982,0.8246,0.6025,0.6226,0.612,0.5999,0.79,0.635,0.6302,0.6324,0.6416,0.7481,0.5666,0.7236,0.5598,0.5813,0.7416,0.6118,0.6074,0.6166,0.6119,0.7967,0.3976,0.7342015504837036,0.6263366341590881,0.5714,0.6133,0.6051,0.6143,0.6266,0.7802
79,0.6501,0.4393,0.6507,0.6964,0.825,0.6055,0.6223,0.6145,0.6027,0.7915,0.6349,0.6289,0.6324,0.6411,0.7478,0.5655,0.7247,0.5586,0.5809,0.7413,0.6121,0.6054,0.6166,0.6123,0.7964,0.4027,0.7318727374076843,0.6274359226226807,0.5783,0.6136,0.6041,0.6146,0.6267,0.7804
80,0.6504,0.4406,0.6505,0.6963,0.8255,0.598,0.62,0.6099,0.5955,0.7918,0.6353,0.6286,0.6327,0.6407,0.7492,0.5674,0.7225,0.5603,0.582,0.7414,0.6113,0.6061,0.6166,0.611,0.7986,0.3993,0.7357197403907776,0.6272563934326172,0.5851,0.6125,0.6036,0.614,0.6251,0.7813
81,0.6549,0.4378,0.6522,0.6904,0.835,0.6022,0.6186,0.6153,0.5989,0.7958,0.6365,0.6262,0.6346,0.6393,0.7541,0.5629,0.7207,0.557,0.5781,0.7462,0.6134,0.6042,0.6208,0.6123,0.8043,0.3999,0.7377561330795288,0.6248244643211365,0.5919,0.614,0.6015,0.616,0.6238,0.7871
82,0.6528,0.4397,0.6516,0.6959,0.8291,0.6014,0.6179,0.6142,0.5983,0.7948,0.6355,0.6281,0.6331,0.6405,0.7503,0.5682,0.7214,0.5622,0.5819,0.7451,0.6116,0.6084,0.6178,0.6111,0.7994,0.4044,0.7331717610359192,0.626783549785614,0.5988,0.6139,0.6031,0.6158,0.6255,0.7837
83,0.6539,0.4377,0.6518,0.6918,0.833,0.599,0.6172,0.6149,0.5959,0.7959,0.6364,0.6264,0.6342,0.6402,0.7522,0.5659,0.7203,0.5602,0.5804,0.7474,0.6117,0.6034,0.6187,0.6107,0.8036,0.3936,0.7359954118728638,0.6261351704597473,0.6055,0.6134,0.601,0.616,0.6238,0.7864
84,0.6549,0.4358,0.6523,0.6903,0.8353,0.6013,0.6167,0.6174,0.5979,0.7974,0.6364,0.6255,0.6344,0.6395,0.7528,0.5654,0.7202,0.56,0.5802,0.749,0.6118,0.603,0.6191,0.6108,0.8043,0.3994,0.7314992547035217,0.6295566558837891,0.6123,0.614,0.6002,0.6166,0.6237,0.7878
85,0.6551,0.4348,0.6524,0.6899,0.8358,0.6047,0.6157,0.6201,0.6008,0.7987,0.6366,0.6246,0.6346,0.6396,0.7531,0.5658,0.7203,0.5604,0.5806,0.7489,0.6119,0.6029,0.6191,0.6109,0.8038,0.4025,0.7332308292388916,0.6296783089637756,0.6191,0.6148,0.5997,0.6173,0.6244,0.7881
86,0.653,0.4343,0.6518,0.6913,0.8323,0.6014,0.6172,0.6171,0.5979,0.7951,0.6362,0.6245,0.6339,0.6401,0.7507,0.5666,0.7215,0.5611,0.5816,0.7467,0.6115,0.6018,0.6178,0.6108,0.8019,0.4006,0.7314309477806091,0.630131185054779,0.6259,0.6137,0.5999,0.6163,0.6243,0.7853
87,0.6504,0.4374,0.6512,0.6986,0.8246,0.6071,0.616,0.6184,0.6035,0.7959,0.635,0.6265,0.6325,0.6418,0.7468,0.5691,0.7226,0.562,0.5833,0.7418,0.6101,0.6068,0.6149,0.6103,0.7947,0.3991,0.7302328944206238,0.6322519183158875,0.6327,0.6143,0.6019,0.6158,0.6275,0.7808
88,0.6501,0.4358,0.6514,0.6975,0.825,0.6052,0.617,0.6178,0.6015,0.7945,0.6345,0.6254,0.632,0.6409,0.7461,0.5684,0.7229,0.5612,0.5832,0.7414,0.6103,0.6043,0.6151,0.6104,0.7961,0.4032,0.7329761385917664,0.6282119750976562,0.6395,0.6137,0.6011,0.6155,0.6267,0.7806
89,0.6511,0.4358,0.6515,0.696,0.8271,0.6025,0.6162,0.6177,0.5989,0.7954,0.6348,0.6254,0.6323,0.6407,0.7469,0.5679,0.7217,0.5612,0.5824,0.7437,0.6103,0.6042,0.6156,0.6101,0.7978,0.4046,0.7338929176330566,0.6294768452644348,0.6463,0.6133,0.6007,0.6157,0.6256,0.7822
90,0.6491,0.44,0.6509,0.7008,0.822,0.6111,0.6159,0.6214,0.6073,0.7967,0.6346,0.6283,0.632,0.6431,0.7443,0.571,0.7224,0.5636,0.5845,0.7407,0.6089,0.6099,0.6134,0.6098,0.7905,0.4026,0.732378363609314,0.6285351514816284,0.6532,0.6149,0.6033,0.6163,0.6291,0.7788
91,0.6544,0.4322,0.6523,0.6892,0.8356,0.5958,0.6148,0.6172,0.593,0.7968,0.6362,0.6228,0.6342,0.6394,0.7516,0.5678,0.7191,0.5631,0.5824,0.7508,0.6106,0.5996,0.618,0.6096,0.8052,0.3985,0.7340747714042664,0.6299755573272705,0.6599,0.613,0.5977,0.617,0.6227,0.788
92,0.648,0.4368,0.6508,0.6998,0.8212,0.6082,0.6164,0.6207,0.6043,0.7949,0.6343,0.6266,0.6318,0.6429,0.7429,0.5701,0.7233,0.5623,0.5846,0.7396,0.6089,0.6063,0.6132,0.6097,0.7915,0.4035,0.7314133048057556,0.6291297078132629,0.6668,0.6139,0.6019,0.6158,0.6283,0.778
93,0.6543,0.4315,0.6524,0.6901,0.835,0.6038,0.6111,0.623,0.5999,0.8017,0.6362,0.6216,0.6342,0.6394,0.7516,0.5681,0.7182,0.5627,0.5824,0.7493,0.6116,0.6006,0.6186,0.6107,0.8035,0.3995,0.7318772077560425,0.6315177083015442,0.6735,0.6148,0.5966,0.6182,0.6245,0.7882
94,0.6482,0.4365,0.6511,0.7006,0.8212,0.6099,0.6138,0.6225,0.6058,0.798,0.6345,0.6255,0.632,0.6434,0.7427,0.5715,0.7215,0.5637,0.5856,0.7409,0.6082,0.6059,0.6125,0.6091,0.791,0.4067,0.7348402738571167,0.6299436688423157,0.6804,0.6145,0.6006,0.6164,0.6289,0.7788
95,0.6537,0.4313,0.6525,0.6922,0.833,0.6016,0.6134,0.6232,0.5975,0.7978,0.6362,0.6219,0.6338,0.6408,0.7492,0.568,0.7185,0.5625,0.5825,0.7489,0.6105,0.6005,0.617,0.6098,0.8019,0.3947,0.7301958799362183,0.6317870616912842,0.6872,0.614,0.5971,0.6178,0.6246,0.7862
96,0.651,0.4321,0.652,0.6958,0.8274,0.6041,0.6133,0.6207,0.6001,0.7967,0.6356,0.6228,0.6331,0.6417,0.746,0.5694,0.72,0.5622,0.584,0.7445,0.61,0.5999,0.6147,0.6102,0.7969,0.3991,0.7304045557975769,0.6312643885612488,0.6939,0.614,0.5976,0.6165,0.6264,0.7823
97,0.654,0.4313,0.6526,0.6929,0.833,0.6038,0.6115,0.6239,0.5996,0.7995,0.6362,0.6216,0.6339,0.6408,0.7492,0.5692,0.7177,0.5635,0.5831,0.7487,0.6098,0.6022,0.6162,0.6093,0.7998,0.4048,0.7269895076751709,0.6336364150047302,0.7008,0.6146,0.5969,0.618,0.6251,0.786
98,0.6478,0.4345,0.6514,0.7008,0.8208,0.6138,0.6147,0.6247,0.6097,0.7958,0.6343,0.6249,0.632,0.6439,0.7413,0.5707,0.7229,0.5625,0.5854,0.7392,0.6083,0.6057,0.6122,0.6102,0.7867,0.3974,0.7301443219184875,0.6309252381324768,0.7075,0.615,0.6005,0.6166,0.63,0.7768
99,0.6456,0.4367,0.6505,0.7035,0.8165,0.6167,0.6135,0.6266,0.6125,0.7971,0.633,0.6264,0.631,0.6449,0.7383,0.5725,0.7232,0.5642,0.5866,0.7366,0.6063,0.6105,0.6104,0.6089,0.7817,0.3949,0.7311236262321472,0.6306658387184143,0.7142,0.6148,0.6021,0.6165,0.6313,0.774
100,0.654,0.431,0.6528,0.6939,0.8326,0.6101,0.6081,0.6285,0.6051,0.8024,0.6366,0.621,0.6341,0.6414,0.7489,0.5693,0.7172,0.5631,0.583,0.7478,0.6102,0.603,0.616,0.6101,0.7971,0.4005,0.7283346056938171,0.6345042586326599,0.721,0.616,0.5961,0.6189,0.6267,0.7858
101,0.6482,0.4348,0.6513,0.7019,0.8206,0.6129,0.6107,0.6272,0.608,0.7996,0.634,0.6249,0.6316,0.644,0.7411,0.5724,0.721,0.5646,0.5859,0.7404,0.6065,0.6086,0.611,0.6081,0.7862,0.4004,0.7279598712921143,0.6331775784492493,0.7278,0.6148,0.6,0.6171,0.6296,0.7776
102,0.654,0.4315,0.653,0.6957,0.8316,0.6123,0.6069,0.6293,0.6073,0.8045,0.636,0.621,0.6335,0.6415,0.7479,0.5705,0.7162,0.5642,0.5833,0.7481,0.6093,0.6052,0.615,0.6094,0.7951,0.4039,0.7304404377937317,0.6355516910552979,0.7347,0.6164,0.5962,0.619,0.6274,0.7854
103,0.6495,0.43,0.6518,0.6982,0.8244,0.6113,0.6091,0.6277,0.6063,0.8006,0.6345,0.6215,0.6321,0.6425,0.7425,0.5704,0.7196,0.5628,0.5845,0.7424,0.6083,0.6022,0.6127,0.6092,0.7912,0.399,0.7279075384140015,0.6354239583015442,0.7415,0.6148,0.5965,0.6174,0.6281,0.7802
104,0.645,0.4335,0.6506,0.7035,0.8159,0.6154,0.6106,0.6277,0.6106,0.7984,0.6324,0.6242,0.6306,0.6447,0.7369,0.5737,0.722,0.5651,0.588,0.736,0.6058,0.6078,0.61,0.6085,0.7817,0.4031,0.7268370985984802,0.6344284415245056,0.7483,0.6145,0.5996,0.6168,0.6311,0.7738
105,0.6449,0.4326,0.6505,0.7028,0.8163,0.6163,0.611,0.6293,0.6113,0.7978,0.6325,0.6242,0.6307,0.6449,0.737,0.5728,0.7229,0.5643,0.5871,0.7361,0.6054,0.6085,0.6097,0.6081,0.7808,0.4073,0.729836106300354,0.6312204599380493,0.7552,0.6144,0.5998,0.6169,0.6308,0.7736
106,0.653,0.4301,0.653,0.6977,0.8293,0.6099,0.6052,0.6293,0.6048,0.8027,0.6356,0.6207,0.6331,0.6423,0.7459,0.5726,0.716,0.566,0.5852,0.7471,0.6083,0.6056,0.6138,0.6088,0.7925,0.3963,0.7273982167243958,0.6352903246879578,0.7619,0.6159,0.5955,0.619,0.6278,0.7835
107,0.6555,0.4246,0.654,0.6925,0.8355,0.61,0.6077,0.6328,0.6043,0.8013,0.6364,0.6177,0.6341,0.641,0.7476,0.5683,0.7166,0.5623,0.5825,0.749,0.6109,0.5984,0.6169,0.6105,0.799,0.3956,0.7254612445831299,0.6364653706550598,0.7687,0.6162,0.593,0.62,0.6262,0.7865
108,0.6487,0.4286,0.6518,0.6991,0.8229,0.6131,0.6078,0.6286,0.608,0.8,0.6338,0.621,0.6315,0.6428,0.7399,0.5727,0.7193,0.5647,0.587,0.7402,0.6079,0.6015,0.6121,0.6095,0.7877,0.4007,0.7275266051292419,0.6330040097236633,0.7755,0.6152,0.5956,0.6177,0.6293,0.7781
109,0.6491,0.4303,0.6519,0.7008,0.8228,0.6132,0.6055,0.628,0.6083,0.8016,0.6339,0.6215,0.6316,0.6432,0.7409,0.5749,0.718,0.5671,0.5883,0.7417,0.6073,0.6057,0.6118,0.6092,0.7857,0.4024,0.7278165221214294,0.6358968019485474,0.7823,0.6157,0.5962,0.6181,0.63,0.7785
110,0.6417,0.4328,0.6503,0.7062,0.8108,0.6171,0.6104,0.6281,0.6127,0.7961,0.6308,0.6255,0.63,0.6469,0.7313,0.5738,0.7239,0.5648,0.5896,0.7307,0.6024,0.6078,0.6069,0.6071,0.7722,0.3984,0.7255284190177917,0.6351825594902039,0.789,0.6132,0.6001,0.616,0.6325,0.7682
111,0.6545,0.4263,0.6537,0.6958,0.8326,0.6106,0.6021,0.6301,0.6056,0.8044,0.6359,0.6188,0.6334,0.6417,0.7463,0.5736,0.7145,0.5674,0.5863,0.749,0.6096,0.602,0.615,0.6101,0.7934,0.4021,0.7239335775375366,0.6378299593925476,0.7959,0.6168,0.5927,0.6199,0.6279,0.7851
112,0.6515,0.427,0.6527,0.698,0.8273,0.6115,0.6044,0.6298,0.6063,0.8024,0.6347,0.6198,0.6323,0.6428,0.7423,0.5728,0.717,0.5657,0.5862,0.745,0.6076,0.6022,0.6123,0.6086,0.7897,0.4023,0.722106397151947,0.6383626461029053,0.8027,0.6156,0.5941,0.6186,0.6284,0.7813
113,0.6513,0.4257,0.6528,0.6979,0.827,0.6158,0.6069,0.6316,0.6103,0.8016,0.6345,0.6205,0.6321,0.6435,0.7407,0.5724,0.7196,0.5652,0.5861,0.7433,0.6078,0.6029,0.6123,0.6094,0.7874,0.3961,0.7222803235054016,0.6368763446807861,0.8094,0.6164,0.5951,0.6188,0.6294,0.78
114,0.6456,0.4294,0.6513,0.7031,0.8172,0.6187,0.6069,0.6314,0.6135,0.8008,0.6327,0.6228,0.6312,0.6461,0.7353,0.5742,0.7213,0.5658,0.5882,0.7373,0.6047,0.6075,0.6091,0.6079,0.7787,0.4007,0.726410448551178,0.6348693370819092,0.8162,0.6152,0.5976,0.6178,0.6318,0.7739
115,0.6485,0.4276,0.6518,0.6996,0.8226,0.6127,0.6048,0.6299,0.6074,0.8028,0.6341,0.6211,0.632,0.6452,0.7385,0.5746,0.7178,0.567,0.5878,0.7423,0.6051,0.6041,0.6097,0.6066,0.7853,0.4051,0.7274850010871887,0.6346419453620911,0.8231,0.615,0.5951,0.6181,0.6293,0.7783
116,0.6433,0.4305,0.6511,0.7057,0.8133,0.6188,0.6065,0.6312,0.6136,0.8006,0.6313,0.6243,0.6305,0.6473,0.7313,0.5747,0.7218,0.5659,0.5893,0.7343,0.6032,0.6075,0.6077,0.6073,0.7746,0.4009,0.7267957329750061,0.6355296969413757,0.8299,0.6143,0.5981,0.6173,0.6326,0.7708
117,0.6468,0.4278,0.6516,0.7017,0.8195,0.6105,0.606,0.6288,0.6053,0.8005,0.6328,0.6225,0.6312,0.6459,0.7353,0.5741,0.7196,0.566,0.5878,0.7398,0.6036,0.6051,0.6082,0.6057,0.7816,0.4026,0.7280188202857971,0.634314775466919,0.8367,0.6136,0.5962,0.6172,0.6293,0.7753
118,0.6508,0.4253,0.6529,0.6989,0.8262,0.61,0.6024,0.6306,0.6047,0.8028,0.6347,0.6204,0.6324,0.6444,0.7397,0.5736,0.7169,0.5662,0.5868,0.7434,0.6058,0.6028,0.6105,0.6071,0.7868,0.4043,0.7238414287567139,0.6374189853668213,0.8436,0.615,0.5936,0.6185,0.6284,0.7798
119,0.6483,0.4264,0.6524,0.7011,0.8217,0.6159,0.6041,0.6322,0.6103,0.8026,0.6334,0.6218,0.6316,0.6455,0.7351,0.5747,0.7189,0.5665,0.5884,0.7392,0.6053,0.6038,0.6096,0.6079,0.7814,0.4143,0.7277728319168091,0.6338339447975159,0.8506,0.6155,0.595,0.6185,0.6306,0.776
120,0.6494,0.426,0.6526,0.701,0.8233,0.6175,0.6027,0.634,0.6117,0.8042,0.6338,0.6216,0.6319,0.6457,0.7367,0.5749,0.7186,0.5669,0.588,0.741,0.6054,0.6066,0.61,0.6079,0.7815,0.3985,0.7204068899154663,0.6404075622558594,0.8574,0.6162,0.5951,0.6191,0.6309,0.7773
121,0.6466,0.4262,0.652,0.7028,0.8187,0.616,0.6038,0.6323,0.6103,0.8022,0.6321,0.6216,0.6307,0.6455,0.7329,0.5741,0.7197,0.5657,0.588,0.7372,0.6044,0.6053,0.6089,0.6075,0.7789,0.3974,0.7242981791496277,0.6397671699523926,0.8641,0.6146,0.5953,0.6179,0.6308,0.774
122,0.6446,0.4271,0.6516,0.7044,0.8155,0.6187,0.605,0.6331,0.613,0.8017,0.6313,0.6229,0.6304,0.6468,0.7303,0.5732,0.7215,0.5645,0.5876,0.734,0.6031,0.6071,0.6078,0.6071,0.7747,0.4038,0.7225770950317383,0.6368683576583862,0.871,0.6142,0.5967,0.6175,0.6318,0.7712
123,0.6437,0.4306,0.6515,0.7082,0.8127,0.6225,0.6023,0.6343,0.6171,0.8039,0.6315,0.6242,0.6308,0.6484,0.7306,0.5784,0.721,0.5698,0.5923,0.7333,0.6006,0.6142,0.6061,0.6058,0.7681,0.3954,0.7259160876274109,0.6369501948356628,0.8777,0.6153,0.5985,0.6185,0.6344,0.7697
124,0.6451,0.4256,0.6515,0.7019,0.8173,0.6165,0.6054,0.6331,0.6108,0.8009,0.6315,0.6222,0.6306,0.6466,0.7295,0.5735,0.7216,0.5648,0.5881,0.7355,0.6035,0.6042,0.608,0.6071,0.7765,0.3985,0.7266629338264465,0.6367606520652771,0.8845,0.614,0.5958,0.6176,0.6309,0.7719
125,0.6429,0.4304,0.6514,0.7083,0.8117,0.6225,0.6024,0.6343,0.6171,0.8034,0.6307,0.6243,0.6304,0.6487,0.7288,0.5779,0.7209,0.5691,0.5922,0.7324,0.6006,0.6125,0.606,0.6062,0.7673,0.3982,0.7269696593284607,0.6363177299499512,0.8912,0.6149,0.5981,0.6182,0.6345,0.7687
126,0.6435,0.4275,0.6514,0.7055,0.8137,0.6194,0.603,0.6328,0.614,0.8015,0.6311,0.6233,0.6306,0.6482,0.7284,0.5755,0.7212,0.5667,0.59,0.7329,0.6021,0.6083,0.6071,0.6072,0.7707,0.4018,0.7202406525611877,0.6391845941543579,0.898,0.6143,0.5967,0.6177,0.633,0.7694
127,0.6474,0.4258,0.6522,0.7034,0.8196,0.6178,0.5996,0.6329,0.6121,0.8047,0.6327,0.6215,0.6312,0.6467,0.7327,0.5761,0.7177,0.5679,0.5891,0.739,0.6025,0.6089,0.6076,0.606,0.7751,0.4011,0.7207966446876526,0.6390628814697266,0.9049,0.6153,0.5947,0.6184,0.6315,0.7742
128,0.6523,0.4198,0.6537,0.6967,0.8294,0.6133,0.5994,0.6334,0.6076,0.8041,0.6347,0.6179,0.6325,0.6439,0.7372,0.575,0.7158,0.5676,0.5884,0.7438,0.607,0.5988,0.6116,0.6086,0.7868,0.3954,0.7223325967788696,0.6398569345474243,0.9116,0.6165,0.5903,0.6198,0.629,0.7803
129,0.6467,0.425,0.652,0.7023,0.8193,0.615,0.5981,0.6313,0.6096,0.804,0.6327,0.6208,0.6312,0.6464,0.7317,0.5757,0.7166,0.5673,0.5891,0.7371,0.6034,0.6054,0.6082,0.607,0.7761,0.3999,0.722253680229187,0.639396071434021,0.9184,0.6147,0.5932,0.618,0.6309,0.7736
130,0.6395,0.4274,0.6508,0.7079,0.8078,0.6227,0.604,0.6326,0.618,0.7994,0.6276,0.6246,0.6288,0.6483,0.7216,0.5769,0.7245,0.5677,0.5933,0.7271,0.5986,0.6086,0.6046,0.6063,0.7608,0.4005,0.7189093232154846,0.6414110660552979,0.9252,0.6131,0.5978,0.6169,0.6348,0.7633
131,0.6483,0.4231,0.6525,0.7011,0.822,0.6182,0.5977,0.6337,0.6125,0.8047,0.6333,0.62,0.6316,0.6461,0.7327,0.5755,0.7162,0.5673,0.5888,0.7385,0.605,0.6042,0.6096,0.6085,0.7778,0.4007,0.7220761179924011,0.638217031955719,0.932,0.6161,0.5922,0.6189,0.6314,0.7751
132,0.6471,0.4229,0.6522,0.7024,0.8198,0.6167,0.5977,0.6341,0.6109,0.8044,0.6325,0.6208,0.6312,0.6469,0.731,0.5765,0.7175,0.5682,0.5899,0.7383,0.6029,0.6051,0.6078,0.6063,0.7757,0.4016,0.7186008095741272,0.6416624188423157,0.9388,0.6151,0.5928,0.6187,0.6313,0.7738
133,0.6459,0.4227,0.6519,0.7014,0.8188,0.6212,0.5997,0.6354,0.6154,0.8032,0.6317,0.6212,0.6307,0.6465,0.7289,0.5756,0.7191,0.5669,0.5901,0.7355,0.6038,0.603,0.6085,0.6082,0.7745,0.3957,0.7215228080749512,0.6409062743186951,0.9456,0.6156,0.5931,0.6187,0.6323,0.7722
134,0.6425,0.4259,0.6515,0.7063,0.8123,0.6263,0.6006,0.6352,0.6215,0.8027,0.6296,0.6232,0.6298,0.648,0.7249,0.5777,0.7211,0.5687,0.5929,0.7308,0.6008,0.6083,0.6064,0.608,0.7642,0.407,0.7217367887496948,0.6391546726226807,0.9525,0.6154,0.5958,0.6183,0.6353,0.767
135,0.6426,0.4253,0.6515,0.706,0.8125,0.62,0.6006,0.634,0.6143,0.8004,0.6289,0.6238,0.6294,0.6481,0.7237,0.5768,0.7212,0.5678,0.5923,0.7306,0.6002,0.6066,0.6058,0.6067,0.7654,0.4026,0.7206002473831177,0.6407187581062317,0.9593,0.6137,0.5955,0.6177,0.6335,0.7665
136,0.6454,0.4212,0.6518,0.7003,0.8187,0.6169,0.6002,0.633,0.6112,0.801,0.631,0.6215,0.6304,0.6465,0.7266,0.5766,0.7195,0.5678,0.5917,0.736,0.6037,0.5996,0.6081,0.6081,0.7747,0.3968,0.7200505137443542,0.6407865881919861,0.9661,0.6147,0.5924,0.6182,0.6316,0.7714
137,0.6406,0.4262,0.6512,0.7072,0.8095,0.6222,0.6016,0.6337,0.617,0.8001,0.6272,0.6254,0.6287,0.649,0.7199,0.5785,0.7228,0.5694,0.5948,0.7287,0.5971,0.6082,0.6036,0.6047,0.7595,0.3973,0.7237108945846558,0.6374868154525757,0.9728,0.6131,0.5968,0.6173,0.6345,0.7635
138,0.6463,0.4234,0.6525,0.7047,0.8178,0.6234,0.597,0.6369,0.6175,0.805,0.6308,0.6223,0.6303,0.6479,0.7274,0.5786,0.7173,0.57,0.5923,0.7359,0.6013,0.608,0.6066,0.6064,0.7691,0.3988,0.7201473116874695,0.6420374512672424,0.9796,0.6161,0.5936,0.6193,0.6338,0.771
139,0.6395,0.4265,0.6509,0.708,0.8079,0.6212,0.5987,0.6337,0.6158,0.8019,0.6265,0.6253,0.6282,0.6482,0.7196,0.5782,0.7208,0.5692,0.5945,0.7271,0.5963,0.6091,0.603,0.6036,0.7587,0.4002,0.7216402888298035,0.6386659145355225,0.9864,0.6123,0.5961,0.617,0.634,0.763
140,0.6458,0.4211,0.6521,0.702,0.8184,0.6228,0.5969,0.6367,0.6169,0.8043,0.6306,0.6208,0.6301,0.6466,0.727,0.5784,0.7174,0.5696,0.5926,0.7356,0.6024,0.6047,0.6075,0.6074,0.771,0.4018,0.715731680393219,0.6438729166984558,0.9932,0.616,0.5922,0.6192,0.6331,0.7713
141,0.6421,0.4241,0.6517,0.7063,0.8118,0.6228,0.598,0.6346,0.6174,0.8027,0.628,0.6235,0.6289,0.6477,0.7214,0.5783,0.7194,0.5693,0.5941,0.7296,0.5986,0.6062,0.6046,0.6056,0.7625,0.4011,0.7199613451957703,0.6418659090995789,1.0,0.614,0.5942,0.6178,0.6342,0.7656
142,0.6367,0.428,0.6504,0.7097,0.8038,0.6272,0.5987,0.6363,0.6224,0.8022,0.6252,0.6267,0.6281,0.6502,0.7157,0.5781,0.7223,0.5693,0.5957,0.7222,0.5936,0.6118,0.6016,0.6035,0.7507,0.4099,0.7219896912574768,0.6397032737731934,1.0071,0.6122,0.5975,0.6171,0.6363,0.7589
143,0.6453,0.4231,0.6521,0.7045,0.8166,0.6253,0.5944,0.6369,0.6197,0.8055,0.6301,0.622,0.6299,0.647,0.726,0.5794,0.7167,0.5707,0.5934,0.7337,0.6009,0.6087,0.6065,0.6074,0.7656,0.4002,0.7186476588249207,0.6417561769485474,1.0139,0.6162,0.593,0.6192,0.6344,0.7695
144,0.6456,0.4226,0.6521,0.7038,0.8173,0.6256,0.595,0.6373,0.6199,0.805,0.6303,0.6217,0.63,0.6471,0.7264,0.5798,0.7164,0.5711,0.5938,0.7346,0.6011,0.6084,0.6067,0.6073,0.7664,0.4036,0.7197495102882385,0.6413252353668213,1.0207,0.6165,0.5928,0.6194,0.6344,0.7699
145,0.6532,0.4186,0.6545,0.6992,0.8296,0.6213,0.592,0.6391,0.6147,0.8066,0.6349,0.6184,0.6328,0.646,0.7356,0.5786,0.7115,0.5707,0.591,0.7419,0.6055,0.603,0.6105,0.6086,0.7792,0.4009,0.7190467119216919,0.6418200135231018,1.0276,0.6187,0.5887,0.6215,0.6319,0.7786
146,0.6536,0.4165,0.6544,0.6966,0.8314,0.6171,0.593,0.6381,0.6107,0.805,0.6349,0.6184,0.6327,0.6453,0.7349,0.578,0.7121,0.57,0.5911,0.7423,0.6067,0.5987,0.6113,0.6093,0.7825,0.4042,0.7187036275863647,0.6429910659790039,1.0344,0.6181,0.5877,0.6213,0.6306,0.7792
147,0.645,0.4215,0.6519,0.7021,0.8174,0.6263,0.5956,0.6379,0.6206,0.8041,0.6303,0.6226,0.6303,0.6478,0.7244,0.5799,0.7179,0.5709,0.5949,0.7329,0.6013,0.6055,0.6068,0.608,0.7659,0.4044,0.7202267646789551,0.6420673727989197,1.0413,0.6166,0.5926,0.6196,0.6347,0.7689
148,0.6445,0.4212,0.6516,0.7016,0.817,0.623,0.5946,0.6374,0.617,0.8043,0.6298,0.6231,0.63,0.6478,0.723,0.5797,0.7177,0.5707,0.595,0.7323,0.5996,0.6046,0.6054,0.6057,0.7654,0.4071,0.7164635062217712,0.6443377137184143,1.0482,0.6153,0.5922,0.619,0.6334,0.7684
149,0.6462,0.4209,0.6522,0.7015,0.8193,0.6275,0.5935,0.6388,0.6218,0.8054,0.631,0.6215,0.6305,0.6472,0.7258,0.5807,0.7158,0.5718,0.5952,0.734,0.602,0.6062,0.6074,0.6087,0.7663,0.392,0.7219719290733337,0.6397332549095154,1.0552,0.6175,0.5916,0.6201,0.6349,0.7702
150,0.6449,0.4208,0.6519,0.702,0.8174,0.6281,0.5934,0.6386,0.6225,0.8052,0.6297,0.6228,0.6298,0.647,0.7235,0.5802,0.7176,0.5711,0.5958,0.7306,0.6009,0.6066,0.6067,0.6085,0.7634,0.4057,0.7143016457557678,0.6435536742210388,1.0621,0.6168,0.5922,0.6196,0.6352,0.768
151,0.6364,0.425,0.6503,0.7074,0.8045,0.6249,0.5954,0.6349,0.6199,0.8022,0.6241,0.6273,0.6275,0.649,0.7125,0.5808,0.7223,0.5717,0.6004,0.7209,0.5945,0.6085,0.6025,0.6052,0.7506,0.4024,0.7182002663612366,0.6413192749023438,1.0689,0.6121,0.5957,0.6174,0.6364,0.7581
152,0.6388,0.4234,0.651,0.7067,0.8077,0.6298,0.596,0.6366,0.6257,0.8025,0.6257,0.6261,0.6281,0.6482,0.7151,0.5812,0.7225,0.572,0.6001,0.7225,0.5962,0.6089,0.6038,0.6071,0.7522,0.4022,0.7181716561317444,0.640575110912323,1.0758,0.6143,0.5954,0.6183,0.6376,0.76
153,0.648,0.4193,0.653,0.702,0.8214,0.6297,0.5918,0.6397,0.6241,0.8066,0.6315,0.6208,0.6307,0.6467,0.7273,0.5818,0.715,0.5731,0.5958,0.7333,0.6023,0.6085,0.6079,0.6092,0.766,0.4012,0.7146385908126831,0.6446529626846313,1.0826,0.6187,0.5911,0.6209,0.6356,0.7709
154,0.6462,0.4181,0.6523,0.6998,0.8201,0.6252,0.592,0.6382,0.6193,0.8048,0.6302,0.6217,0.63,0.646,0.7235,0.5803,0.7163,0.5711,0.596,0.7325,0.6033,0.6011,0.6083,0.6101,0.768,0.647,0.7194565534591675,0.643641471862793,1.0935,0.617,0.5898,0.62,0.6342,0.7698
155,0.6484,0.4178,0.653,0.7002,0.8228,0.6275,0.591,0.6401,0.6213,0.806,0.6312,0.6208,0.6305,0.6464,0.7265,0.5809,0.7148,0.572,0.5952,0.7341,0.6028,0.6056,0.6082,0.6089,0.7684,0.5123,0.7164694666862488,0.6439127922058105,1.1021,0.6182,0.59,0.6208,0.6344,0.7716
156,0.6487,0.4166,0.6529,0.6991,0.8236,0.6242,0.59,0.6398,0.6177,0.8058,0.6311,0.6208,0.6304,0.646,0.7265,0.5811,0.7144,0.5723,0.5957,0.7347,0.6031,0.6031,0.6083,0.6086,0.7706,0.4679,0.7172257304191589,0.6430070400238037,1.11,0.6176,0.589,0.6207,0.6334,0.7722
157,0.64,0.4225,0.651,0.7053,0.8098,0.6292,0.5933,0.6385,0.6241,0.8036,0.6259,0.6262,0.6282,0.6485,0.7154,0.583,0.7212,0.5738,0.6017,0.7238,0.5963,0.6097,0.6038,0.6067,0.7528,0.4313,0.718006432056427,0.6411775946617126,1.1174,0.6149,0.5946,0.6191,0.6373,0.7611
158,0.642,0.4208,0.6516,0.7044,0.8126,0.6318,0.5933,0.6388,0.6274,0.8038,0.628,0.6239,0.6292,0.6482,0.7189,0.5811,0.7191,0.572,0.5982,0.7266,0.5985,0.6077,0.6052,0.6083,0.7564,0.4133,0.7154315114021301,0.6433103084564209,1.1245,0.6163,0.593,0.6194,0.6373,0.7637
159,0.6432,0.42,0.6514,0.7016,0.8155,0.6262,0.5907,0.6385,0.6205,0.8043,0.6286,0.6242,0.6293,0.6477,0.7198,0.582,0.717,0.5728,0.599,0.7279,0.6004,0.6044,0.6064,0.6091,0.7611,0.4097,0.715833842754364,0.6438549160957336,1.1315,0.6161,0.5913,0.6197,0.6356,0.7657
160,0.6415,0.4233,0.6514,0.7055,0.8116,0.6304,0.5923,0.6379,0.6258,0.8035,0.6273,0.626,0.629,0.6491,0.7173,0.5845,0.7194,0.5755,0.6028,0.7232,0.5964,0.6123,0.6041,0.6075,0.7516,0.4122,0.7192733287811279,0.6404873728752136,1.1385,0.616,0.5947,0.6196,0.6381,0.7614
161,0.6483,0.4176,0.653,0.6991,0.8233,0.6292,0.5899,0.6393,0.6238,0.8049,0.6319,0.6214,0.631,0.6463,0.7262,0.5833,0.7144,0.5742,0.5991,0.7314,0.6044,0.6033,0.6095,0.6122,0.7668,0.404,0.7162566781044006,0.6436634063720703,1.1453,0.6194,0.5893,0.6214,0.6361,0.7705
162,0.6496,0.4169,0.6534,0.6994,0.8249,0.6308,0.5896,0.6407,0.6252,0.8057,0.6327,0.6202,0.6315,0.6463,0.7284,0.5834,0.7137,0.5745,0.5979,0.7328,0.6047,0.6059,0.6099,0.6123,0.7671,0.4079,0.7203499674797058,0.6410060524940491,1.1523,0.6202,0.5893,0.622,0.6362,0.7718
163,0.647,0.4167,0.6524,0.6981,0.8221,0.6279,0.5891,0.6401,0.622,0.8055,0.6309,0.6215,0.6303,0.6455,0.7246,0.5828,0.7146,0.5736,0.5989,0.7302,0.6045,0.6021,0.6095,0.6124,0.7669,0.414,0.7181812524795532,0.643136739730835,1.1593,0.6186,0.5888,0.6212,0.6354,0.7699
164,0.6448,0.4193,0.6518,0.701,0.8178,0.6299,0.5887,0.6398,0.6244,0.8059,0.6296,0.6233,0.6297,0.6466,0.7221,0.5861,0.7155,0.5768,0.6031,0.7273,0.6007,0.6078,0.6069,0.61,0.7598,0.4035,0.7178203463554382,0.6413651704788208,1.1662,0.6182,0.5909,0.621,0.637,0.7666
165,0.6397,0.4222,0.6508,0.7045,0.8098,0.629,0.5923,0.6368,0.6245,0.8022,0.6261,0.627,0.6284,0.6484,0.7147,0.5867,0.7207,0.5776,0.6078,0.7197,0.5962,0.6114,0.6043,0.6089,0.7488,0.3976,0.7164111733436584,0.6423925757408142,1.1729,0.6155,0.5947,0.6196,0.6388,0.759
166,0.6482,0.4164,0.6528,0.6985,0.8235,0.629,0.589,0.6413,0.6229,0.8051,0.631,0.6229,0.6304,0.6462,0.7242,0.5851,0.7156,0.5758,0.6019,0.7288,0.6032,0.6049,0.6087,0.6116,0.7644,0.4035,0.7160698175430298,0.6445711255073547,1.1797,0.6193,0.5898,0.6218,0.6362,0.7692
167,0.6403,0.421,0.6508,0.7019,0.8118,0.6319,0.5925,0.638,0.6281,0.8019,0.6263,0.6281,0.6285,0.6479,0.7134,0.5871,0.7216,0.5778,0.6102,0.718,0.5971,0.6082,0.6051,0.6109,0.7489,0.4005,0.7161016464233398,0.6434120535850525,1.1865,0.6165,0.5943,0.62,0.6398,0.7588
168,0.6497,0.4158,0.6534,0.6983,0.8255,0.6305,0.5854,0.6415,0.6246,0.8073,0.6317,0.6216,0.6307,0.6457,0.7255,0.5841,0.7117,0.575,0.5995,0.73,0.6044,0.6041,0.6096,0.6123,0.7667,0.4032,0.7173740267753601,0.6432663798332214,1.1934,0.6201,0.5877,0.622,0.6361,0.771
169,0.642,0.4212,0.6512,0.7025,0.8136,0.6319,0.5901,0.6385,0.6277,0.8032,0.6274,0.627,0.6289,0.6483,0.7162,0.5882,0.7185,0.579,0.6094,0.7193,0.597,0.6112,0.605,0.6098,0.7496,0.3971,0.7172704339027405,0.6424564123153687,1.2001,0.6173,0.5936,0.6205,0.6395,0.7604
170,0.6402,0.4204,0.6508,0.7022,0.8116,0.6302,0.5919,0.6386,0.6254,0.802,0.6245,0.6283,0.6274,0.6474,0.7112,0.5873,0.7215,0.578,0.6101,0.718,0.5958,0.6088,0.6041,0.6088,0.7482,0.4062,0.7175840139389038,0.643013060092926,1.207,0.6156,0.5942,0.6198,0.6388,0.7582
171,0.642,0.4197,0.6512,0.702,0.8139,0.6324,0.5904,0.6401,0.6277,0.8033,0.6264,0.6271,0.6282,0.6473,0.7148,0.5878,0.7191,0.5785,0.6091,0.7201,0.5973,0.6093,0.6051,0.6095,0.7513,0.4093,0.7151961326599121,0.6436355113983154,1.214,0.6172,0.5931,0.6206,0.6391,0.7607
172,0.6424,0.4186,0.6511,0.7,0.8154,0.6306,0.5883,0.6395,0.6255,0.8041,0.6274,0.6262,0.6287,0.6468,0.7164,0.5877,0.7176,0.5783,0.6087,0.722,0.5993,0.606,0.6063,0.611,0.7547,0.4005,0.7155595421791077,0.645035982131958,1.2208,0.6175,0.5913,0.6208,0.6384,0.7625
173,0.6386,0.4212,0.6505,0.7023,0.8096,0.6346,0.5921,0.6386,0.6317,0.8012,0.6234,0.6295,0.6269,0.6469,0.7087,0.5861,0.7225,0.5773,0.6108,0.714,0.5944,0.6102,0.6036,0.6098,0.7432,0.4022,0.7171739339828491,0.6438828706741333,1.2276,0.6154,0.5951,0.6194,0.6403,0.7553
174,0.6505,0.4152,0.6539,0.698,0.8267,0.6341,0.5888,0.6428,0.6287,0.8054,0.6311,0.6233,0.6304,0.6456,0.7238,0.5883,0.7137,0.5787,0.6059,0.7286,0.6049,0.6033,0.6101,0.614,0.7648,0.3999,0.7159221172332764,0.6443018317222595,1.2344,0.6218,0.5889,0.6232,0.6384,0.7699
175,0.6454,0.4162,0.6518,0.6976,0.8204,0.6301,0.5894,0.6391,0.6251,0.8026,0.6288,0.6256,0.6293,0.6463,0.7182,0.5888,0.7167,0.5791,0.6093,0.7249,0.6019,0.6033,0.6081,0.6132,0.7584,0.4052,0.7141396999359131,0.6461092829704285,1.2413,0.619,0.5902,0.6215,0.6383,0.7649
176,0.6434,0.4182,0.6514,0.6998,0.8167,0.6316,0.5881,0.6398,0.6268,0.8036,0.6271,0.6272,0.6285,0.6469,0.7148,0.5889,0.7172,0.5795,0.6109,0.7204,0.5989,0.6076,0.6063,0.6116,0.7524,0.4035,0.7134802937507629,0.6450459361076355,1.2481,0.618,0.5917,0.6211,0.6392,0.7616
177,0.6353,0.4228,0.6496,0.7025,0.8055,0.6341,0.592,0.6374,0.6318,0.7999,0.6209,0.6316,0.6261,0.6478,0.7035,0.5869,0.7232,0.5786,0.6146,0.7103,0.5925,0.611,0.603,0.6104,0.738,0.4012,0.714725911617279,0.6442080736160278,1.255,0.6139,0.5961,0.6189,0.6414,0.7514
178,0.645,0.4172,0.652,0.6994,0.819,0.6343,0.5887,0.6417,0.6297,0.8036,0.6276,0.6267,0.6287,0.6465,0.7156,0.5897,0.7175,0.5802,0.6115,0.7199,0.5993,0.6079,0.6066,0.6119,0.753,0.4046,0.7151778936386108,0.6446489691734314,1.2618,0.6192,0.5916,0.6218,0.6398,0.7622
179,0.6468,0.4176,0.6522,0.6993,0.8214,0.6313,0.5849,0.6391,0.6265,0.8041,0.6295,0.6251,0.6295,0.6462,0.7211,0.593,0.7138,0.5835,0.6131,0.7239,0.6009,0.6109,0.6077,0.6132,0.7547,0.3989,0.7127014994621277,0.6455147862434387,1.2686,0.6203,0.5905,0.6224,0.6397,0.765
180,0.6425,0.4195,0.6513,0.7002,0.8154,0.6344,0.5901,0.6377,0.632,0.8003,0.6264,0.6287,0.6282,0.6468,0.7127,0.5901,0.7192,0.5808,0.6146,0.7164,0.5972,0.6097,0.6057,0.6132,0.7457,0.3974,0.7172070741653442,0.643198549747467,1.2754,0.6181,0.5934,0.6207,0.6414,0.7581
181,0.6481,0.4151,0.6527,0.6963,0.8246,0.6323,0.5865,0.6396,0.6278,0.8031,0.6298,0.6257,0.6296,0.6453,0.7194,0.592,0.7147,0.5821,0.614,0.7236,0.6029,0.6042,0.609,0.6153,0.7576,0.4017,0.7155349254608154,0.643186628818512,1.2822,0.621,0.5892,0.6226,0.6397,0.7657
182,0.6464,0.4156,0.6521,0.6964,0.8223,0.6318,0.5884,0.6385,0.6278,0.8015,0.6282,0.6276,0.6288,0.6456,0.7158,0.5907,0.7182,0.581,0.6143,0.7202,0.6013,0.6052,0.6082,0.6153,0.7536,0.4022,0.7124885320663452,0.644746720790863,1.289,0.6197,0.591,0.6217,0.6399,0.7627
183,0.6471,0.4149,0.6523,0.696,0.8234,0.6318,0.5889,0.6386,0.6277,0.8011,0.6285,0.6271,0.629,0.6455,0.7166,0.5914,0.7185,0.5816,0.615,0.7209,0.6018,0.6048,0.6085,0.6155,0.7543,0.4008,0.7127418518066406,0.6448644399642944,1.2958,0.6201,0.5908,0.622,0.6399,0.7633
184,0.6512,0.4121,0.6539,0.6946,0.8295,0.6314,0.584,0.6411,0.626,0.8044,0.6309,0.6242,0.6301,0.6441,0.7218,0.5933,0.7133,0.5831,0.6142,0.7271,0.6055,0.6006,0.6107,0.6165,0.763,0.3986,0.7122521996498108,0.6478689312934875,1.3026,0.6225,0.5868,0.6238,0.6391,0.7692
185,0.6442,0.4184,0.6515,0.6994,0.818,0.6336,0.5865,0.6388,0.63,0.8022,0.6272,0.6287,0.6286,0.6473,0.7137,0.5914,0.7181,0.5823,0.6155,0.7164,0.598,0.6112,0.6062,0.6135,0.747,0.4074,0.7145737409591675,0.643198549747467,1.3095,0.6189,0.5926,0.6215,0.6411,0.7595
186,0.6471,0.4149,0.6521,0.6957,0.8236,0.6323,0.5844,0.6403,0.6276,0.8035,0.6287,0.6253,0.629,0.6448,0.7186,0.5921,0.7146,0.5823,0.6143,0.7225,0.6026,0.6043,0.6089,0.6153,0.7567,0.4,0.716874361038208,0.6453452110290527,1.3163,0.6206,0.5887,0.6225,0.6395,0.765
187,0.6438,0.4156,0.6515,0.6967,0.8188,0.6342,0.5881,0.6389,0.6312,0.8009,0.6267,0.6281,0.6282,0.6454,0.7126,0.5911,0.7198,0.5816,0.6167,0.7189,0.6014,0.6037,0.6086,0.6174,0.7511,0.4027,0.7102184295654297,0.6460973620414734,1.3231,0.6194,0.5911,0.6218,0.6415,0.7605
188,0.6489,0.4133,0.6529,0.6955,0.8259,0.6347,0.585,0.6405,0.6309,0.8029,0.6298,0.625,0.6296,0.6446,0.7195,0.5924,0.7156,0.5826,0.6155,0.7209,0.6038,0.6041,0.6099,0.6172,0.7569,0.4018,0.7122047543525696,0.6462469696998596,1.3299,0.6219,0.5886,0.6231,0.6407,0.7652
189,0.6458,0.4168,0.6522,0.6988,0.8204,0.6386,0.5878,0.6409,0.6368,0.8005,0.6276,0.6275,0.6285,0.6453,0.7152,0.5916,0.7185,0.5826,0.6168,0.7148,0.6001,0.6109,0.608,0.6172,0.7474,0.4048,0.7116199731826782,0.6462509632110596,1.3368,0.6207,0.5923,0.6224,0.643,0.7597
190,0.6442,0.4175,0.6517,0.6992,0.8181,0.6364,0.587,0.6396,0.6342,0.8003,0.6272,0.6286,0.6285,0.6465,0.7132,0.5915,0.7193,0.5828,0.6181,0.7132,0.5982,0.611,0.6068,0.6157,0.7447,0.4,0.7134984731674194,0.6440045833587646,1.3436,0.6195,0.5927,0.6219,0.6427,0.7579
191,0.6462,0.4156,0.6522,0.698,0.8212,0.6366,0.5865,0.6398,0.6342,0.8005,0.6281,0.6267,0.6286,0.6448,0.7166,0.5928,0.718,0.5835,0.6179,0.7168,0.6011,0.6091,0.6085,0.6177,0.7493,0.3998,0.7121270298957825,0.6469172835350037,1.3504,0.621,0.5912,0.6225,0.6425,0.7609
192,0.6479,0.4137,0.6528,0.6961,0.8243,0.6367,0.5857,0.6403,0.634,0.8013,0.6298,0.6247,0.6296,0.6445,0.7199,0.5929,0.716,0.5832,0.617,0.7202,0.6043,0.6042,0.6106,0.6195,0.7551,0.4031,0.7139486074447632,0.6472305059432983,1.3572,0.6223,0.5889,0.6233,0.6422,0.7642
193,0.6455,0.4163,0.6521,0.6992,0.8198,0.6385,0.5856,0.6417,0.6359,0.8016,0.6279,0.6265,0.6287,0.6458,0.716,0.5929,0.7175,0.5839,0.6181,0.7161,0.6007,0.6107,0.6084,0.6174,0.7484,0.3997,0.7093647122383118,0.6481901407241821,1.3641,0.6211,0.5913,0.623,0.6433,0.7604
194,0.6426,0.4178,0.6513,0.6989,0.8162,0.6389,0.5874,0.6409,0.6375,0.7999,0.6258,0.6292,0.6278,0.6459,0.7107,0.5909,0.7205,0.5825,0.6194,0.7116,0.5976,0.6102,0.6067,0.6168,0.7422,0.402,0.7133544683456421,0.6447806358337402,1.3709,0.6192,0.593,0.6218,0.6437,0.7561
195,0.6497,0.4126,0.6529,0.6943,0.8277,0.6363,0.5855,0.64,0.6337,0.8008,0.6308,0.6236,0.6298,0.6432,0.7225,0.595,0.714,0.5851,0.6186,0.7217,0.607,0.6045,0.6125,0.6221,0.758,0.4003,0.7125872373580933,0.6462309956550598,1.3777,0.6238,0.588,0.6241,0.6424,0.7661
196,0.6496,0.4127,0.6529,0.6946,0.8275,0.6358,0.5832,0.6405,0.6324,0.8016,0.6309,0.6241,0.63,0.6443,0.7218,0.5944,0.7136,0.5848,0.6179,0.7198,0.6064,0.6062,0.6121,0.6214,0.7571,0.4006,0.7103512287139893,0.6472604274749756,1.3845,0.6234,0.588,0.6241,0.6421,0.7656
197,0.6429,0.4165,0.6513,0.6977,0.8172,0.6402,0.5876,0.6415,0.6394,0.7993,0.626,0.629,0.6279,0.6456,0.7109,0.5906,0.7203,0.5822,0.6193,0.7107,0.5994,0.6095,0.608,0.619,0.7439,0.4003,0.7119361758232117,0.6459716558456421,1.3914,0.6198,0.5926,0.6222,0.6442,0.7564
198,0.6424,0.4172,0.6509,0.6976,0.8166,0.6386,0.5874,0.6401,0.6376,0.7988,0.6256,0.6297,0.6277,0.646,0.7097,0.5909,0.7203,0.5825,0.6199,0.7109,0.5974,0.6111,0.6068,0.6176,0.7409,0.3988,0.7126018404960632,0.645325243473053,1.3981,0.619,0.5931,0.6216,0.6437,0.7554
199,0.646,0.4151,0.6519,0.6963,0.8219,0.6383,0.5847,0.641,0.6365,0.8002,0.6284,0.6263,0.6288,0.6447,0.7163,0.5942,0.7158,0.5848,0.6205,0.717,0.6032,0.6075,0.6103,0.6214,0.7497,0.4035,0.7112129926681519,0.6487606763839722,1.405,0.622,0.5899,0.6234,0.6439,0.761
200,0.6519,0.4116,0.6539,0.6944,0.8308,0.6379,0.5846,0.6412,0.6354,0.8009,0.6316,0.6238,0.6305,0.6441,0.7234,0.5943,0.7137,0.5847,0.6172,0.7207,0.6081,0.606,0.6134,0.6233,0.7585,0.4134,0.712344229221344,0.6458559632301331,1.412,0.6248,0.5879,0.6247,0.6429,0.7669
201,0.644,0.416,0.6513,0.6957,0.8196,0.6389,0.588,0.6391,0.6392,0.7975,0.6267,0.6294,0.6281,0.6452,0.7114,0.592,0.7197,0.5836,0.6219,0.712,0.5987,0.6087,0.6078,0.6195,0.7419,0.3987,0.7104737162590027,0.6471367478370667,1.4188,0.6201,0.5924,0.622,0.6443,0.7565
202,0.6467,0.4137,0.6521,0.6949,0.8235,0.6393,0.5863,0.641,0.6382,0.7992,0.6287,0.6267,0.6289,0.6444,0.7159,0.5933,0.7167,0.5839,0.6201,0.7171,0.6046,0.6056,0.6114,0.6233,0.751,0.4052,0.7155953049659729,0.6435517072677612,1.4257,0.6225,0.5898,0.6235,0.6442,0.7613
203,0.6502,0.4115,0.6532,0.6935,0.8289,0.6375,0.5835,0.6407,0.6353,0.8001,0.6314,0.6241,0.6304,0.6441,0.7217,0.5939,0.7132,0.5842,0.6185,0.7191,0.6082,0.6046,0.6136,0.6252,0.7567,0.3979,0.7102391123771667,0.6486988663673401,1.4324,0.6242,0.5874,0.6244,0.6433,0.7653
204,0.6487,0.4099,0.6529,0.6929,0.827,0.6378,0.584,0.6408,0.6356,0.7999,0.6301,0.6237,0.6296,0.643,0.7197,0.593,0.7152,0.5831,0.6183,0.7198,0.6092,0.6004,0.6142,0.6255,0.7591,0.4072,0.7064476013183594,0.6509292721748352,1.4393,0.6238,0.5866,0.6241,0.6431,0.7651
205,0.6484,0.4107,0.6529,0.6942,0.826,0.6396,0.584,0.6418,0.6379,0.8002,0.6299,0.6242,0.6295,0.6432,0.7195,0.5938,0.7153,0.5841,0.6193,0.7185,0.6076,0.6031,0.6132,0.6247,0.7561,0.4028,0.7076631784439087,0.6495746374130249,1.4462,0.6239,0.5875,0.6243,0.6439,0.7641
206,0.6486,0.4117,0.6527,0.6933,0.8268,0.64,0.5842,0.6417,0.6388,0.7996,0.6303,0.6252,0.6298,0.6439,0.7189,0.5931,0.7151,0.5839,0.6199,0.7164,0.6075,0.6047,0.6133,0.6257,0.7544,0.3984,0.7101664543151855,0.6470469832420349,1.4529,0.6239,0.5882,0.6243,0.6443,0.7632
207,0.6458,0.4133,0.6517,0.6945,0.8226,0.6389,0.5837,0.6403,0.6379,0.7992,0.6288,0.6266,0.629,0.6443,0.7161,0.594,0.7162,0.5849,0.6224,0.7148,0.6036,0.6073,0.6108,0.6235,0.7483,0.3965,0.7076891660690308,0.6490738987922668,1.4597,0.6222,0.5894,0.6233,0.6445,0.7602
208,0.6422,0.4159,0.6508,0.6961,0.8171,0.6387,0.5862,0.6395,0.6386,0.7971,0.6249,0.6303,0.6273,0.6451,0.7078,0.591,0.7208,0.5833,0.6231,0.7079,0.5993,0.61,0.6088,0.6223,0.7402,0.3991,0.7111669182777405,0.6480464935302734,1.4665,0.6192,0.5926,0.6219,0.645,0.754
209,0.6453,0.4134,0.6517,0.6943,0.822,0.6391,0.5849,0.6409,0.6381,0.7984,0.6274,0.6284,0.6284,0.6444,0.7127,0.593,0.7185,0.5844,0.6233,0.7126,0.6031,0.606,0.6108,0.6241,0.7467,0.4017,0.7084135413169861,0.6493173241615295,1.4733,0.6216,0.5902,0.6232,0.6448,0.7585
210,0.642,0.4168,0.6507,0.6972,0.8163,0.6402,0.5843,0.6403,0.6404,0.7979,0.625,0.6308,0.6274,0.6454,0.7077,0.591,0.7201,0.5838,0.6232,0.7051,0.5974,0.6135,0.6078,0.6224,0.7356,0.4062,0.7100259065628052,0.645975649356842,1.4802,0.6191,0.5931,0.622,0.6457,0.7525
211,0.6486,0.4122,0.6526,0.6941,0.8265,0.6394,0.5816,0.6419,0.6376,0.8001,0.6301,0.6265,0.6297,0.6446,0.7177,0.594,0.7147,0.585,0.6216,0.7135,0.6052,0.6074,0.612,0.6245,0.7507,0.3971,0.7133461833000183,0.6465202569961548,1.487,0.6235,0.5885,0.6242,0.6445,0.7617
212,0.6466,0.4127,0.6522,0.6951,0.8233,0.6396,0.5852,0.6411,0.6388,0.7978,0.6277,0.6281,0.6285,0.6445,0.7137,0.5933,0.7192,0.5847,0.6236,0.7108,0.6037,0.6084,0.6113,0.6248,0.747,0.4072,0.7083110809326172,0.6476374864578247,1.4939,0.6222,0.5907,0.6236,0.6454,0.7585
213,0.6465,0.4126,0.6521,0.6948,0.8233,0.6408,0.5839,0.642,0.64,0.7989,0.6276,0.6284,0.6284,0.6443,0.7126,0.5932,0.7186,0.5847,0.6236,0.7098,0.6034,0.6086,0.6112,0.6252,0.7459,0.4014,0.7077573537826538,0.6480724215507507,1.5007,0.6223,0.5904,0.6237,0.6456,0.7581
214,0.6464,0.4121,0.6521,0.6943,0.8234,0.6407,0.5848,0.6413,0.6405,0.7985,0.6284,0.628,0.6289,0.6445,0.7138,0.5941,0.7184,0.5853,0.6247,0.7126,0.6047,0.6063,0.612,0.6267,0.7474,0.3954,0.711361289024353,0.6459636688232422,1.5074,0.6229,0.5899,0.6239,0.6461,0.7591
215,0.6378,0.4204,0.6502,0.7,0.8097,0.642,0.5918,0.6381,0.6472,0.7927,0.6212,0.6349,0.6262,0.647,0.6985,0.5874,0.7273,0.5824,0.6252,0.695,0.5927,0.6186,0.6064,0.6233,0.725,0.4013,0.7129147052764893,0.6437451839447021,1.5142,0.6162,0.5986,0.6207,0.6485,0.7442
216,0.6495,0.412,0.6532,0.695,0.8272,0.641,0.5861,0.641,0.6413,0.7975,0.6303,0.6268,0.6298,0.6447,0.7173,0.5952,0.7173,0.5862,0.624,0.7133,0.6067,0.608,0.6132,0.6277,0.7501,0.4024,0.7122271060943604,0.646049439907074,1.5211,0.6245,0.59,0.6247,0.6465,0.7611
217,0.6454,0.4145,0.6519,0.6968,0.8209,0.6406,0.586,0.6401,0.6414,0.7971,0.6271,0.6293,0.6282,0.6451,0.7111,0.5932,0.7192,0.5852,0.625,0.708,0.6022,0.6112,0.6108,0.6264,0.7418,0.3987,0.7137231826782227,0.6453272700309753,1.5279,0.6217,0.592,0.6232,0.6469,0.7558
218,0.6498,0.4098,0.653,0.6927,0.8288,0.6397,0.5837,0.6407,0.6392,0.7985,0.6311,0.6251,0.6303,0.644,0.7198,0.5952,0.7152,0.5858,0.6233,0.7153,0.6083,0.605,0.6143,0.629,0.7526,0.4032,0.7081326246261597,0.6490719318389893,1.5347,0.6248,0.5878,0.6248,0.6456,0.763
219,0.6446,0.4141,0.6517,0.6963,0.8201,0.641,0.5864,0.6401,0.6424,0.7965,0.6265,0.6295,0.628,0.6452,0.7097,0.5923,0.721,0.5848,0.6254,0.7053,0.602,0.611,0.611,0.6274,0.7406,0.4,0.7070583701133728,0.6485352516174316,1.5415,0.6213,0.5924,0.6231,0.6473,0.7544
220,0.645,0.4137,0.6517,0.6953,0.8211,0.6407,0.5861,0.6399,0.6421,0.796,0.6269,0.6296,0.6282,0.6446,0.7107,0.5924,0.7201,0.585,0.6257,0.7055,0.6027,0.6105,0.6116,0.6283,0.7412,0.4002,0.7074704766273499,0.6473941206932068,1.5483,0.6215,0.592,0.6233,0.6472,0.7549
221,0.6511,0.4091,0.6536,0.6931,0.8303,0.6415,0.5839,0.6416,0.6416,0.7988,0.6315,0.6247,0.6304,0.6436,0.7207,0.5961,0.7142,0.5868,0.6242,0.7149,0.6106,0.605,0.6159,0.6311,0.7549,0.3957,0.7084812521934509,0.6481242775917053,1.5552,0.6262,0.5874,0.6257,0.6467,0.7639
222,0.6463,0.4117,0.6522,0.6937,0.8235,0.6397,0.5874,0.6392,0.6409,0.7955,0.6284,0.6277,0.629,0.6448,0.7123,0.5934,0.7186,0.5849,0.6257,0.7109,0.6069,0.6034,0.6139,0.6308,0.7482,0.4281,0.7091707587242126,0.6492375135421753,1.5625,0.6229,0.5898,0.6238,0.6472,0.7581
223,0.649,0.4117,0.6531,0.695,0.8264,0.6406,0.5857,0.64,0.6415,0.7968,0.6294,0.6267,0.6293,0.6443,0.716,0.5949,0.7167,0.5863,0.6252,0.7107,0.6079,0.608,0.6145,0.6311,0.7491,0.6436,0.7104107141494751,0.6469771265983582,1.5733,0.6244,0.5898,0.6246,0.6474,0.7598
224,0.6483,0.4114,0.6527,0.694,0.8261,0.6406,0.5837,0.6407,0.6408,0.7979,0.6295,0.6268,0.6294,0.6439,0.7162,0.5946,0.7156,0.586,0.6252,0.7115,0.6076,0.6056,0.6143,0.6313,0.7487,0.5142,0.7092920541763306,0.6488364934921265,1.582,0.6241,0.5886,0.6246,0.647,0.7601
225,0.646,0.4127,0.6518,0.6942,0.823,0.6405,0.5843,0.6403,0.641,0.7972,0.6281,0.6283,0.6289,0.6452,0.7119,0.5935,0.7177,0.5856,0.626,0.7075,0.6057,0.6076,0.6133,0.63,0.7458,0.4558,0.711089015007019,0.6477412581443787,1.5897,0.6228,0.5901,0.624,0.6473,0.7571
226,0.6409,0.4171,0.6507,0.6983,0.8144,0.6414,0.5871,0.639,0.6445,0.7946,0.6238,0.6335,0.6274,0.6474,0.7017,0.5911,0.7239,0.5854,0.6289,0.6981,0.5973,0.6158,0.6091,0.6276,0.7305,0.4377,0.7075977921485901,0.648337721824646,1.5971,0.6189,0.5955,0.6223,0.6493,0.7479
227,0.6453,0.4117,0.6518,0.6939,0.822,0.6398,0.5865,0.6398,0.6406,0.796,0.6277,0.6285,0.6288,0.6452,0.7104,0.5925,0.7201,0.5845,0.6264,0.7074,0.6066,0.6043,0.6139,0.6315,0.7468,0.4263,0.7093786597251892,0.6488404870033264,1.6043,0.6224,0.5902,0.6238,0.6475,0.7565
228,0.6479,0.4114,0.6525,0.6939,0.8257,0.6415,0.5851,0.6405,0.6428,0.797,0.6294,0.628,0.6295,0.645,0.7141,0.5939,0.7182,0.586,0.6262,0.7072,0.6063,0.609,0.614,0.632,0.745,0.4141,0.7070791125297546,0.6490240097045898,1.6113,0.6238,0.5903,0.6245,0.648,0.7578
229,0.6491,0.4103,0.6527,0.6923,0.828,0.6415,0.5843,0.641,0.6424,0.7976,0.6304,0.6263,0.63,0.6443,0.7171,0.595,0.7155,0.5864,0.6263,0.7108,0.609,0.6058,0.6154,0.6333,0.7494,0.4126,0.7116506099700928,0.6481162905693054,1.6183,0.625,0.5884,0.6251,0.6477,0.7606
230,0.652,0.4069,0.6537,0.6894,0.8334,0.6398,0.5838,0.6412,0.6391,0.7979,0.6314,0.624,0.6303,0.6423,0.7205,0.5958,0.7139,0.5864,0.6256,0.7147,0.6146,0.6005,0.6189,0.6357,0.759,0.4452,0.7057708501815796,0.6501193046569824,1.6259,0.6267,0.5858,0.6261,0.6464,0.7651
231,0.6489,0.4099,0.6526,0.6921,0.8278,0.6406,0.5839,0.6407,0.6411,0.7969,0.6301,0.6264,0.6298,0.644,0.7167,0.5955,0.7164,0.587,0.6277,0.7103,0.6085,0.6062,0.6153,0.6331,0.7487,1.1902,0.7096781730651855,0.6488324999809265,1.6458,0.6247,0.5886,0.6251,0.6476,0.7601
232,0.6506,0.4088,0.6535,0.6921,0.8302,0.6404,0.5836,0.6405,0.6407,0.7975,0.6306,0.6257,0.6299,0.6433,0.718,0.5954,0.715,0.5868,0.6267,0.711,0.6112,0.6047,0.6169,0.635,0.7522,0.3708,0.707334578037262,0.6495327949523926,1.6522,0.6256,0.5876,0.6255,0.6476,0.7618
233,0.6436,0.412,0.6512,0.6927,0.8205,0.6397,0.5888,0.6381,0.6424,0.793,0.6255,0.6321,0.6278,0.6451,0.7032,0.5903,0.7228,0.5839,0.6292,0.7002,0.6044,0.6059,0.6136,0.634,0.7399,0.4098,0.712339460849762,0.6463766694068909,1.6591,0.6207,0.5923,0.6229,0.6487,0.7514
234,0.6501,0.4089,0.6533,0.6916,0.8296,0.6403,0.5854,0.6394,0.6419,0.7958,0.6298,0.6275,0.6294,0.643,0.7146,0.5943,0.7167,0.586,0.6276,0.7088,0.61,0.6045,0.6163,0.6358,0.7491,0.3997,0.7100091576576233,0.6474599242210388,1.6659,0.6249,0.5886,0.6249,0.648,0.7596
235,0.651,0.4085,0.6535,0.6918,0.8308,0.6416,0.5838,0.641,0.6425,0.7976,0.6302,0.6272,0.6295,0.6429,0.7165,0.5946,0.7165,0.5864,0.6269,0.7089,0.6099,0.606,0.6162,0.6354,0.7492,0.3978,0.7048443555831909,0.6502469778060913,1.6727,0.6255,0.5884,0.6253,0.6479,0.7606
236,0.6439,0.4144,0.6514,0.6963,0.8192,0.6419,0.5865,0.639,0.6458,0.7943,0.6266,0.6316,0.6286,0.6469,0.7061,0.5925,0.7214,0.5865,0.6305,0.7001,0.6005,0.614,0.6114,0.632,0.7332,0.4014,0.7054964900016785,0.6515178084373474,1.6795,0.6211,0.5936,0.6234,0.6503,0.7506
237,0.6488,0.4106,0.653,0.6941,0.8265,0.6414,0.586,0.6396,0.6437,0.7955,0.63,0.6273,0.63,0.6456,0.7142,0.5949,0.7175,0.5869,0.6285,0.7074,0.6087,0.6073,0.6156,0.6351,0.7469,0.4022,0.7132428288459778,0.6465981006622314,1.6863,0.6248,0.5897,0.625,0.6494,0.7581
238,0.6545,0.405,0.6547,0.6889,0.8372,0.641,0.5844,0.6408,0.6414,0.7974,0.6322,0.6235,0.6307,0.6416,0.723,0.5964,0.7143,0.5871,0.6257,0.7128,0.6175,0.6023,0.6212,0.6395,0.7604,0.4027,0.7060040831565857,0.6504624485969543,1.6932,0.6283,0.5859,0.6269,0.6474,0.7662
239,0.6452,0.4113,0.652,0.6939,0.8218,0.6403,0.5892,0.6376,0.6442,0.7925,0.6276,0.6298,0.6289,0.6454,0.7082,0.5905,0.7218,0.5838,0.6279,0.702,0.6064,0.6049,0.6146,0.6356,0.7424,0.4056,0.7070716023445129,0.6499158143997192,1.7,0.622,0.5914,0.6234,0.6494,0.7534
240,0.6526,0.4068,0.6542,0.6913,0.833,0.6405,0.5833,0.6404,0.641,0.7971,0.6316,0.624,0.6304,0.6424,0.7209,0.5969,0.7131,0.5877,0.6281,0.714,0.6148,0.6011,0.6191,0.638,0.7567,0.4005,0.7085162401199341,0.6499636769294739,1.7069,0.6273,0.5857,0.6264,0.6482,0.7643
241,0.6427,0.4142,0.6517,0.6984,0.8164,0.641,0.5901,0.6369,0.6469,0.7914,0.6262,0.6305,0.6285,0.647,0.7058,0.591,0.7238,0.585,0.6298,0.6992,0.6026,0.6107,0.6129,0.6352,0.7349,0.4024,0.7062087655067444,0.6493751406669617,1.7137,0.6207,0.5939,0.623,0.6515,0.7495
242,0.6517,0.4064,0.6539,0.6914,0.8318,0.6404,0.5837,0.6397,0.6415,0.7964,0.6311,0.6247,0.6301,0.6422,0.7194,0.5964,0.7153,0.5876,0.6291,0.7115,0.6137,0.6018,0.6186,0.6379,0.7546,0.4025,0.7056586742401123,0.6516634225845337,1.7206,0.6267,0.5864,0.626,0.6484,0.7627
243,0.6517,0.4062,0.6538,0.6915,0.8318,0.6401,0.5829,0.6397,0.6409,0.7965,0.6313,0.6243,0.6302,0.6423,0.7203,0.5963,0.7146,0.5875,0.6287,0.7116,0.6139,0.6016,0.6186,0.6376,0.7552,0.4035,0.7027645111083984,0.6534429788589478,1.7274,0.6267,0.5859,0.626,0.6482,0.7631
244,0.6519,0.4075,0.6539,0.6927,0.8315,0.6412,0.5812,0.6408,0.642,0.7976,0.6314,0.6248,0.6303,0.6429,0.7206,0.597,0.7133,0.5886,0.6291,0.7101,0.6124,0.6055,0.6179,0.6375,0.7521,0.404,0.7093760967254639,0.6498240232467651,1.7343,0.6268,0.5865,0.6263,0.6488,0.7624
245,0.6491,0.4084,0.6532,0.693,0.8274,0.6397,0.5842,0.639,0.6413,0.7946,0.6299,0.6264,0.6296,0.6435,0.7153,0.5933,0.7167,0.5854,0.628,0.7066,0.6117,0.6024,0.6177,0.6387,0.75,0.4012,0.707812488079071,0.651665449142456,1.7411,0.6247,0.5876,0.625,0.6489,0.7588
246,0.6487,0.4097,0.653,0.695,0.826,0.6413,0.586,0.6387,0.6447,0.7941,0.63,0.6276,0.6299,0.6453,0.7144,0.594,0.7196,0.5869,0.6306,0.7028,0.608,0.6087,0.6156,0.6371,0.7436,0.4003,0.7005842328071594,0.6534629464149475,1.7479,0.6244,0.5903,0.6248,0.6505,0.7562
247,0.6536,0.4046,0.6545,0.6894,0.8354,0.6413,0.5824,0.6404,0.6426,0.7969,0.6325,0.6224,0.6309,0.6414,0.7239,0.5976,0.7118,0.5883,0.6289,0.7134,0.6176,0.5997,0.6212,0.6407,0.7597,0.407,0.7050549983978271,0.652563214302063,1.7548,0.6285,0.5842,0.6271,0.6486,0.7659
248,0.6474,0.4093,0.6528,0.6944,0.8245,0.6404,0.5866,0.6386,0.6433,0.7935,0.6291,0.6276,0.6295,0.6452,0.7119,0.5916,0.7185,0.5846,0.6286,0.7028,0.6106,0.6037,0.6173,0.6392,0.7473,0.3999,0.7128345370292664,0.6462808847427368,1.7616,0.6238,0.5891,0.6246,0.6501,0.756
249,0.6455,0.4121,0.6525,0.6974,0.8205,0.6405,0.5891,0.637,0.6455,0.7914,0.627,0.6302,0.6287,0.6467,0.7071,0.5921,0.7229,0.5863,0.633,0.6977,0.6059,0.609,0.6149,0.6376,0.7392,0.4051,0.707631528377533,0.6489741802215576,1.7685,0.6222,0.5927,0.6239,0.652,0.7512
250,0.6519,0.4058,0.6539,0.691,0.8323,0.6418,0.5837,0.6405,0.6437,0.7959,0.6313,0.6251,0.6303,0.643,0.7191,0.5946,0.7154,0.5864,0.6281,0.7083,0.6142,0.6027,0.6192,0.6399,0.7536,0.4026,0.7058544158935547,0.6502549648284912,1.7753,0.6268,0.5865,0.6261,0.6491,0.7618
251,0.649,0.4088,0.6534,0.6945,0.8265,0.6426,0.5861,0.6398,0.6464,0.7941,0.6295,0.6281,0.6297,0.6451,0.7121,0.5944,0.7194,0.5874,0.633,0.7022,0.6108,0.6062,0.6177,0.6404,0.7465,0.4008,0.7047129273414612,0.6512145400047302,1.7821,0.6253,0.5897,0.6256,0.6519,0.7563
252,0.646,0.412,0.6525,0.6962,0.8217,0.642,0.5866,0.6385,0.6471,0.7925,0.6274,0.6308,0.6288,0.646,0.7073,0.591,0.7208,0.5857,0.6325,0.6965,0.6047,0.6098,0.6146,0.6385,0.7364,0.4077,0.7078433036804199,0.6486649513244629,1.789,0.6222,0.592,0.624,0.6521,0.7509
253,0.6479,0.411,0.653,0.6961,0.8244,0.6436,0.5862,0.6399,0.6486,0.7935,0.629,0.6288,0.6295,0.646,0.7112,0.5944,0.7197,0.5881,0.6341,0.6997,0.6079,0.6103,0.6162,0.6396,0.7413,0.4018,0.7099306583404541,0.6482998728752136,1.7958,0.6246,0.5912,0.6253,0.6529,0.754
254,0.648,0.4111,0.6532,0.6979,0.8235,0.6423,0.5858,0.6389,0.6469,0.7934,0.629,0.6287,0.6297,0.6467,0.7122,0.5945,0.7206,0.5883,0.6341,0.6981,0.6071,0.6121,0.6157,0.6391,0.7398,0.4014,0.7052587866783142,0.6508933901786804,1.8027,0.6242,0.5917,0.6252,0.6529,0.7534
255,0.6479,0.4106,0.6531,0.6963,0.8242,0.6424,0.5866,0.6389,0.6472,0.7929,0.6286,0.6292,0.6294,0.6462,0.7106,0.593,0.7217,0.5871,0.6332,0.6966,0.6084,0.6102,0.6166,0.6405,0.7414,0.4044,0.7086901664733887,0.64927738904953,1.8095,0.6241,0.5917,0.625,0.6527,0.7531
256,0.6485,0.4101,0.6533,0.6956,0.8253,0.642,0.5851,0.6395,0.6458,0.7936,0.6289,0.6292,0.6295,0.6457,0.7108,0.5931,0.7199,0.5872,0.6338,0.6985,0.6081,0.6093,0.6165,0.6404,0.741,0.4054,0.7098076343536377,0.6489202976226807,1.8164,0.6241,0.5907,0.6252,0.6523,0.7538
257,0.6453,0.4124,0.6524,0.6973,0.8203,0.6433,0.5885,0.6386,0.6505,0.7906,0.6268,0.632,0.6288,0.6471,0.7047,0.59,0.7246,0.5858,0.6335,0.6925,0.6029,0.6138,0.6143,0.64,0.7314,0.3982,0.7086719870567322,0.6487566828727722,1.8232,0.6217,0.5943,0.624,0.6537,0.7479
258,0.6532,0.4055,0.6544,0.6909,0.8341,0.6412,0.5852,0.6393,0.6439,0.7943,0.6323,0.6243,0.6309,0.6431,0.7216,0.5964,0.7159,0.5883,0.6315,0.7075,0.6168,0.6035,0.6213,0.6441,0.7545,0.401,0.7051400542259216,0.6527547240257263,1.83,0.628,0.5869,0.6268,0.6507,0.7624
259,0.6477,0.4108,0.653,0.6966,0.8238,0.6435,0.5874,0.6393,0.6495,0.7922,0.6285,0.6305,0.6294,0.6466,0.7092,0.5921,0.7226,0.5868,0.6337,0.6948,0.6069,0.6129,0.6162,0.6419,0.7372,0.4023,0.7073701024055481,0.648533284664154,1.8368,0.6237,0.5928,0.6249,0.6537,0.7514
260,0.6513,0.4057,0.6537,0.6905,0.8316,0.642,0.5859,0.6398,0.6451,0.7941,0.6312,0.6262,0.6304,0.6435,0.7173,0.5952,0.7182,0.5876,0.6333,0.7041,0.6161,0.6015,0.621,0.6443,0.7533,0.4042,0.7033540606498718,0.6531617045402527,1.8437,0.6272,0.5875,0.6265,0.6513,0.7601
261,0.6531,0.4059,0.6546,0.6932,0.8326,0.6417,0.5856,0.6397,0.6446,0.7941,0.6324,0.625,0.6312,0.6447,0.7209,0.5964,0.718,0.5888,0.6331,0.704,0.616,0.6046,0.6208,0.6432,0.7537,0.3997,0.7071958780288696,0.6505382657051086,1.8505,0.6279,0.5878,0.627,0.6518,0.7611
262,0.6482,0.4093,0.6534,0.6962,0.8246,0.6433,0.5861,0.6399,0.6482,0.7928,0.6286,0.6289,0.6293,0.6454,0.7106,0.5922,0.7205,0.5866,0.6337,0.697,0.6096,0.6076,0.6176,0.6427,0.7421,0.4004,0.7067985534667969,0.6507537364959717,1.8573,0.6244,0.5905,0.6254,0.6532,0.7534
263,0.6508,0.4066,0.6538,0.6924,0.8297,0.6421,0.587,0.6389,0.6468,0.7926,0.6312,0.6259,0.6305,0.644,0.7169,0.5946,0.7179,0.5873,0.6338,0.7026,0.6148,0.6019,0.6203,0.6444,0.7508,0.4066,0.7061663269996643,0.651404082775116,1.8642,0.6267,0.5879,0.6262,0.6523,0.7585
264,0.648,0.4099,0.6532,0.6954,0.8248,0.6438,0.5862,0.6397,0.6497,0.7923,0.6289,0.6295,0.6296,0.6458,0.7099,0.5922,0.7202,0.5868,0.6341,0.6972,0.609,0.6081,0.6175,0.6433,0.7407,0.401,0.7072196006774902,0.6494370102882385,1.871,0.6244,0.5908,0.6254,0.6537,0.753
265,0.6454,0.4131,0.6527,0.6991,0.8196,0.6444,0.5894,0.639,0.6529,0.7901,0.6274,0.6312,0.6294,0.6484,0.7062,0.591,0.7241,0.5871,0.6359,0.6913,0.6045,0.6135,0.6153,0.6418,0.733,0.4012,0.7085038423538208,0.6502150893211365,1.8778,0.6225,0.5943,0.6247,0.6556,0.748
266,0.6536,0.4045,0.6546,0.6904,0.8347,0.643,0.5842,0.6408,0.646,0.7947,0.6321,0.6244,0.6308,0.6429,0.7202,0.5964,0.7158,0.5888,0.634,0.7053,0.6176,0.6011,0.6219,0.6449,0.7555,0.4024,0.7062729597091675,0.6512185335159302,1.8846,0.6285,0.586,0.6274,0.6516,0.7621
267,0.6524,0.4048,0.6542,0.6904,0.833,0.6428,0.5853,0.6404,0.6462,0.794,0.6313,0.6259,0.6304,0.6435,0.7167,0.5947,0.718,0.5875,0.6338,0.7026,0.6164,0.6013,0.6213,0.6452,0.7531,0.4025,0.7039396166801453,0.6537641882896423,1.8914,0.6275,0.5871,0.6268,0.6518,0.7599
268,0.6531,0.4058,0.6544,0.6913,0.8337,0.6432,0.5827,0.6411,0.646,0.7951,0.6316,0.6261,0.6306,0.644,0.7173,0.5954,0.7154,0.5886,0.634,0.7017,0.6154,0.6053,0.6208,0.6449,0.751,0.408,0.7082212567329407,0.6492455005645752,1.8983,0.6277,0.5871,0.6271,0.652,0.7598
269,0.6513,0.406,0.6539,0.6919,0.8307,0.6441,0.5854,0.641,0.6485,0.7937,0.6306,0.6277,0.6303,0.6448,0.7132,0.5948,0.7197,0.5882,0.6356,0.7006,0.6127,0.6045,0.6193,0.6442,0.7468,0.4065,0.7024620175361633,0.6535826325416565,1.9052,0.6267,0.5887,0.6265,0.653,0.757
270,0.6533,0.4051,0.6546,0.6921,0.8335,0.6451,0.5839,0.6418,0.6493,0.7951,0.6322,0.6246,0.631,0.6438,0.7195,0.5966,0.7159,0.5895,0.6349,0.7027,0.616,0.6052,0.6212,0.6455,0.7516,0.406,0.7093226909637451,0.6498420238494873,1.9121,0.6286,0.5869,0.6276,0.6531,0.7605
271,0.6544,0.4033,0.655,0.6909,0.8356,0.6439,0.5824,0.6415,0.6469,0.7956,0.6324,0.624,0.631,0.6428,0.7211,0.5966,0.7143,0.589,0.6339,0.7045,0.6173,0.6031,0.6219,0.6456,0.7541,0.4006,0.706494927406311,0.651723325252533,1.9189,0.6289,0.5854,0.6277,0.652,0.7622
272,0.6492,0.4086,0.6538,0.6964,0.8257,0.6445,0.5879,0.6397,0.6515,0.7914,0.6298,0.6277,0.6301,0.6464,0.7116,0.5937,0.7209,0.588,0.6359,0.6974,0.611,0.6076,0.6186,0.6448,0.7429,0.4,0.7074141502380371,0.6507018208503723,1.9257,0.6256,0.5905,0.626,0.655,0.7538
273,0.6481,0.4081,0.6532,0.6942,0.8253,0.6438,0.5871,0.64,0.6496,0.7919,0.6293,0.6285,0.6299,0.646,0.7097,0.5929,0.7206,0.5871,0.6362,0.6978,0.6115,0.6032,0.6187,0.6442,0.7448,0.4007,0.7104016542434692,0.649500846862793,1.9325,0.6251,0.5895,0.6258,0.654,0.7539
274,0.6451,0.4114,0.6525,0.6975,0.8198,0.6458,0.5876,0.6406,0.6537,0.7913,0.627,0.6326,0.6293,0.6487,0.7028,0.5895,0.7241,0.5862,0.6364,0.6896,0.6043,0.6111,0.6155,0.6433,0.7318,0.4049,0.7036947011947632,0.6511626839637756,1.9394,0.6223,0.5934,0.6248,0.6559,0.7471
275,0.6535,0.4043,0.655,0.6931,0.8331,0.6445,0.583,0.6415,0.6484,0.7948,0.6323,0.6244,0.6311,0.6441,0.7197,0.5966,0.7157,0.5895,0.6355,0.7024,0.617,0.6037,0.6219,0.6465,0.7526,0.399,0.7029783129692078,0.6532015800476074,1.9462,0.6288,0.5862,0.6278,0.6535,0.7605
276,0.6526,0.4052,0.6546,0.6929,0.832,0.6447,0.5851,0.6409,0.6497,0.7933,0.6311,0.6267,0.6305,0.6447,0.7153,0.5949,0.7184,0.5886,0.6358,0.6981,0.6156,0.6051,0.6213,0.6465,0.7499,0.403,0.7023115754127502,0.6536026000976562,1.953,0.6278,0.5881,0.6272,0.6539,0.7577
277,0.6498,0.4086,0.6536,0.6961,0.8266,0.6461,0.5852,0.6418,0.6519,0.7933,0.6304,0.6287,0.6307,0.6475,0.7127,0.5939,0.7196,0.5887,0.6366,0.6945,0.6113,0.6101,0.619,0.6449,0.7431,0.4056,0.707945704460144,0.6499297618865967,1.9599,0.6263,0.5904,0.6268,0.6554,0.754
278,0.6471,0.4092,0.6528,0.695,0.8237,0.6451,0.5895,0.6398,0.6535,0.7904,0.6288,0.6297,0.6297,0.6466,0.7088,0.5905,0.7234,0.5863,0.636,0.6924,0.6095,0.6079,0.6184,0.6464,0.7391,0.406,0.7060221433639526,0.6503028273582458,1.9668,0.6242,0.5919,0.6254,0.6555,0.7509
279,0.648,0.4075,0.6531,0.6942,0.825,0.644,0.5883,0.6396,0.651,0.7904,0.629,0.6293,0.6297,0.646,0.7092,0.5912,0.7225,0.5862,0.6359,0.6945,0.611,0.6048,0.619,0.6459,0.7425,0.4068,0.704308032989502,0.650995135307312,1.9737,0.6246,0.5905,0.6255,0.6546,0.7523
280,0.6534,0.4039,0.6547,0.6908,0.834,0.6447,0.5833,0.6416,0.6488,0.7944,0.6325,0.624,0.6313,0.6436,0.7198,0.5967,0.7139,0.5894,0.6361,0.7033,0.618,0.6016,0.6226,0.6476,0.7538,0.4077,0.7068207859992981,0.6516275405883789,1.9806,0.6291,0.5853,0.6279,0.6534,0.7611
281,0.6509,0.4066,0.6541,0.694,0.8291,0.6459,0.5864,0.6414,0.6523,0.7924,0.6306,0.6273,0.6304,0.6458,0.7136,0.594,0.72,0.5884,0.6369,0.6957,0.614,0.6063,0.6206,0.6473,0.7464,0.4052,0.706963300704956,0.6505941152572632,1.9875,0.6271,0.5893,0.627,0.6553,0.7554
282,0.6511,0.4051,0.6539,0.6914,0.8306,0.6455,0.5871,0.6413,0.6517,0.7921,0.6306,0.6273,0.6303,0.6446,0.7139,0.5923,0.7218,0.5865,0.6348,0.6969,0.6147,0.6039,0.6209,0.6479,0.7474,0.402,0.7032003998756409,0.6524195671081543,1.9943,0.6268,0.589,0.6266,0.6541,0.7562
283,0.6515,0.4063,0.6542,0.6938,0.83,0.6461,0.584,0.6422,0.6515,0.7935,0.6307,0.6273,0.6304,0.6456,0.7141,0.5944,0.7183,0.5887,0.6369,0.6956,0.6129,0.608,0.6199,0.6471,0.7444,0.4027,0.7069672346115112,0.6501591801643372,2.0011,0.6271,0.5888,0.6271,0.655,0.7555
284,0.6536,0.4043,0.6549,0.6925,0.8335,0.6454,0.5822,0.6426,0.6491,0.795,0.6322,0.6255,0.6312,0.6448,0.7185,0.5953,0.7158,0.5887,0.6353,0.6991,0.6165,0.6049,0.6218,0.6473,0.751,0.4038,0.7044417262077332,0.6523018479347229,2.008,0.6286,0.5865,0.6278,0.6538,0.7594
285,0.6496,0.4078,0.6536,0.6955,0.8267,0.6455,0.5854,0.6411,0.6521,0.7921,0.6303,0.6284,0.6305,0.6468,0.7128,0.5927,0.721,0.5879,0.6366,0.6931,0.61,0.6106,0.6186,0.6467,0.7393,0.4042,0.7063463926315308,0.6510489583015442,2.0148,0.6256,0.5906,0.6263,0.6555,0.7528
286,0.6478,0.4073,0.6531,0.6941,0.8248,0.6462,0.5866,0.6415,0.6532,0.7919,0.6289,0.6289,0.6296,0.6458,0.709,0.5917,0.7219,0.5868,0.6366,0.6946,0.6103,0.6048,0.6186,0.6462,0.7409,0.411,0.7062146663665771,0.6489502191543579,2.0218,0.625,0.5899,0.6259,0.6552,0.7522
287,0.6485,0.4068,0.6533,0.6939,0.8258,0.6466,0.5854,0.6422,0.653,0.793,0.6291,0.629,0.6299,0.6464,0.7088,0.5916,0.7214,0.5868,0.6366,0.6939,0.6109,0.6051,0.6189,0.6465,0.7418,0.4017,0.7032400369644165,0.6524774432182312,2.0286,0.6253,0.5895,0.6262,0.6553,0.7527
288,0.6529,0.4057,0.6546,0.6942,0.8317,0.6468,0.5831,0.643,0.652,0.7941,0.6317,0.6271,0.6312,0.6464,0.7164,0.5946,0.7185,0.5891,0.6369,0.6961,0.6133,0.6096,0.6203,0.6481,0.7441,0.398,0.7052953839302063,0.6506958603858948,2.0354,0.6279,0.5888,0.6276,0.6555,0.7565
289,0.6538,0.4029,0.655,0.6917,0.8341,0.6456,0.5846,0.6417,0.651,0.7932,0.6322,0.625,0.6311,0.6443,0.7188,0.5951,0.7184,0.5886,0.6362,0.6985,0.6176,0.6031,0.6226,0.6487,0.752,0.4047,0.7024238705635071,0.6531298160552979,2.0423,0.6289,0.5868,0.6278,0.6544,0.7593
290,0.6501,0.4067,0.6537,0.6955,0.8274,0.6472,0.5852,0.6427,0.6537,0.7933,0.6309,0.6275,0.6309,0.6475,0.7144,0.593,0.7217,0.5879,0.6365,0.6938,0.6112,0.6082,0.6191,0.6469,0.7414,0.4024,0.703423798084259,0.6533672213554382,2.0491,0.6265,0.5899,0.6269,0.656,0.7541
291,0.6527,0.406,0.6546,0.6952,0.8308,0.6476,0.5848,0.6427,0.6544,0.7931,0.6329,0.6249,0.632,0.6469,0.7193,0.5954,0.7183,0.5897,0.6373,0.697,0.6153,0.6086,0.6215,0.6491,0.7469,0.4024,0.7083718776702881,0.6509372591972351,2.0559,0.6288,0.5885,0.6281,0.6566,0.7574
292,0.6522,0.4045,0.6543,0.6921,0.8317,0.6454,0.5843,0.6419,0.6507,0.7929,0.6318,0.6256,0.6311,0.645,0.7172,0.594,0.7177,0.5882,0.6363,0.6981,0.616,0.6034,0.6219,0.6496,0.7485,0.4033,0.7059718370437622,0.6518549919128418,2.0628,0.6279,0.5871,0.6275,0.6547,0.7577
293,0.653,0.4046,0.6546,0.6929,0.8324,0.6468,0.5846,0.6423,0.6533,0.7929,0.6323,0.6257,0.6314,0.6458,0.7178,0.5942,0.7186,0.5885,0.636,0.6961,0.6155,0.6072,0.6216,0.6495,0.747,0.4067,0.7049602270126343,0.6516095995903015,2.0697,0.6284,0.5881,0.6277,0.6555,0.7572
294,0.6524,0.4045,0.6542,0.6917,0.8323,0.6458,0.5865,0.6413,0.6527,0.7914,0.6319,0.6264,0.6311,0.6453,0.7167,0.5934,0.7198,0.5878,0.6364,0.6963,0.6155,0.6055,0.6218,0.6504,0.7466,0.4005,0.7061467170715332,0.6514798998832703,2.0765,0.6278,0.5885,0.6272,0.6553,0.7567
295,0.6511,0.4058,0.6541,0.6939,0.8294,0.6467,0.587,0.6411,0.6552,0.791,0.6313,0.6276,0.631,0.6465,0.7134,0.592,0.7215,0.5873,0.6363,0.6928,0.6125,0.6077,0.6201,0.6493,0.742,0.3999,0.7031363844871521,0.6524355411529541,2.0833,0.6267,0.5899,0.6267,0.6562,0.7537
296,0.65,0.4057,0.6537,0.6937,0.828,0.6466,0.5874,0.6414,0.6546,0.7911,0.6304,0.628,0.6305,0.6464,0.7123,0.5916,0.7228,0.5871,0.6367,0.693,0.6126,0.6054,0.6201,0.6485,0.7432,0.4043,0.7028874158859253,0.6534888744354248,2.0901,0.6262,0.5899,0.6266,0.656,0.7535
297,0.6529,0.4045,0.6545,0.6929,0.8324,0.6486,0.5827,0.6441,0.6546,0.7945,0.6322,0.6258,0.6313,0.6458,0.7179,0.594,0.7169,0.5887,0.6367,0.6949,0.6141,0.6073,0.6207,0.6482,0.7456,0.409,0.7021200656890869,0.653576672077179,2.0971,0.6284,0.5874,0.6279,0.6556,0.7571
298,0.6511,0.4064,0.6541,0.6947,0.8289,0.6481,0.5862,0.6421,0.6571,0.7914,0.6316,0.6277,0.6313,0.6473,0.7141,0.5921,0.7211,0.588,0.6372,0.6908,0.6107,0.6105,0.6193,0.6484,0.7392,0.397,0.7046918869018555,0.6519946455955505,2.1038,0.6267,0.5904,0.627,0.6569,0.7529
299,0.6531,0.4044,0.6544,0.6923,0.8331,0.6469,0.584,0.6423,0.6536,0.7925,0.6326,0.6261,0.6315,0.6459,0.7184,0.5936,0.7179,0.5884,0.6364,0.6947,0.6133,0.6088,0.6204,0.6487,0.7436,0.4066,0.706321120262146,0.6513422727584839,2.1107,0.6279,0.5882,0.6274,0.6554,0.7565
300,0.6481,0.4059,0.6527,0.6917,0.8265,0.647,0.5864,0.6418,0.6553,0.7909,0.6291,0.6309,0.6299,0.6465,0.7066,0.5902,0.7235,0.5868,0.6387,0.6892,0.609,0.6075,0.6189,0.6497,0.736,0.3998,0.7013044357299805,0.6524734497070312,2.1175,0.6247,0.5908,0.626,0.6564,0.7498
301,0.6531,0.4035,0.6547,0.6921,0.833,0.6476,0.5851,0.6422,0.6552,0.7922,0.6321,0.6266,0.6313,0.6454,0.7166,0.5928,0.7201,0.5878,0.6362,0.6932,0.6141,0.6082,0.621,0.6502,0.744,0.4028,0.7089658379554749,0.6492335200309753,2.1244,0.6279,0.5887,0.6274,0.6558,0.7558
302,0.6489,0.4088,0.6537,0.6974,0.8248,0.6478,0.587,0.6413,0.6582,0.7901,0.6295,0.6304,0.6305,0.6486,0.7085,0.5901,0.7235,0.5876,0.6379,0.6856,0.6057,0.6162,0.6169,0.6478,0.7302,0.404,0.7055520415306091,0.6507177948951721,2.1313,0.6244,0.5932,0.626,0.658,0.7478
303,0.6506,0.4062,0.654,0.6954,0.8279,0.6479,0.5859,0.6416,0.6576,0.7907,0.6312,0.6278,0.6311,0.6474,0.713,0.5923,0.7207,0.5883,0.6382,0.6906,0.6103,0.611,0.6191,0.6491,0.7379,0.4032,0.7013808488845825,0.6550130844116211,2.1381,0.6265,0.5903,0.6268,0.6575,0.752
304,0.6496,0.4046,0.6534,0.6924,0.8281,0.6469,0.5863,0.6415,0.6553,0.7909,0.6306,0.6281,0.6306,0.6464,0.7118,0.5916,0.7222,0.5872,0.638,0.6923,0.6119,0.6058,0.6199,0.6497,0.7409,0.3992,0.7021861672401428,0.6551786661148071,2.1449,0.6261,0.5894,0.6265,0.6564,0.7528
305,0.6535,0.4021,0.6549,0.6915,0.8335,0.6472,0.5849,0.6424,0.6539,0.7926,0.6331,0.6242,0.6319,0.6454,0.7191,0.5944,0.7186,0.5884,0.6372,0.6962,0.6181,0.6028,0.6232,0.6512,0.7507,0.4068,0.7054181694984436,0.6529701948165894,2.1518,0.6293,0.5865,0.6282,0.6558,0.7584
306,0.6536,0.4033,0.6548,0.6925,0.8334,0.6461,0.585,0.6415,0.6528,0.7918,0.6324,0.6261,0.6315,0.6461,0.7175,0.5934,0.7204,0.5883,0.6372,0.6934,0.6152,0.6079,0.6218,0.6509,0.7453,0.3947,0.7034252285957336,0.6540514826774597,2.1587,0.6281,0.5885,0.6276,0.6559,0.7563
307,0.6549,0.4012,0.6554,0.6916,0.8356,0.6473,0.582,0.6436,0.6523,0.7946,0.6342,0.6234,0.6326,0.6458,0.7216,0.5954,0.7167,0.5891,0.6366,0.698,0.6179,0.6037,0.6228,0.6503,0.751,0.4046,0.7012313008308411,0.6563277840614319,2.1656,0.6299,0.5854,0.6287,0.6553,0.7602
308,0.6512,0.4037,0.6539,0.6919,0.8305,0.6463,0.5846,0.6417,0.6533,0.7915,0.6315,0.6278,0.6312,0.6468,0.7135,0.5917,0.7211,0.5872,0.6374,0.6926,0.6129,0.6062,0.6205,0.6508,0.7417,0.3998,0.7020310163497925,0.6536165475845337,2.1724,0.6267,0.5887,0.6269,0.656,0.754
309,0.6544,0.4021,0.6552,0.6917,0.8348,0.648,0.5823,0.6437,0.6539,0.7941,0.6328,0.6255,0.6317,0.6455,0.7182,0.5949,0.7169,0.5893,0.6384,0.6958,0.616,0.6054,0.622,0.6508,0.7471,0.4082,0.7043304443359375,0.6518609523773193,2.1793,0.6292,0.5864,0.6284,0.6561,0.758
310,0.6493,0.4069,0.6539,0.6963,0.8257,0.6475,0.5871,0.641,0.6581,0.7897,0.6299,0.6309,0.6308,0.6489,0.7074,0.5894,0.7241,0.5873,0.639,0.6854,0.608,0.612,0.6185,0.6506,0.733,0.4002,0.7017504572868347,0.6534090638160706,2.1861,0.6248,0.5922,0.6263,0.6586,0.7482
311,0.6509,0.4053,0.6539,0.693,0.8295,0.6469,0.5869,0.641,0.6564,0.7899,0.6316,0.6291,0.6315,0.648,0.7118,0.5916,0.7229,0.5882,0.64,0.6892,0.6111,0.6095,0.6201,0.6521,0.7374,0.3965,0.7057080268859863,0.6500415205955505,2.1929,0.6264,0.5907,0.6269,0.6579,0.7516
312,0.6533,0.4025,0.6548,0.6917,0.8334,0.6483,0.5837,0.6431,0.6558,0.793,0.633,0.6262,0.6319,0.646,0.7171,0.5933,0.7183,0.5882,0.6375,0.6949,0.6147,0.6056,0.6215,0.6513,0.7445,0.4023,0.7025526165962219,0.6527926325798035,2.1998,0.6285,0.5873,0.6279,0.6565,0.7566
313,0.6514,0.403,0.6541,0.6908,0.8311,0.6478,0.5859,0.6423,0.6564,0.7913,0.6313,0.6277,0.631,0.6457,0.7125,0.5913,0.721,0.5869,0.6377,0.6922,0.6141,0.6036,0.6213,0.6519,0.7433,0.4048,0.7061355113983154,0.6519207954406738,2.2067,0.6272,0.5882,0.6271,0.6565,0.7541
314,0.6504,0.4056,0.654,0.6947,0.828,0.6485,0.5857,0.6424,0.6578,0.791,0.6311,0.6289,0.6314,0.6488,0.7103,0.5905,0.7223,0.5875,0.6385,0.6873,0.6101,0.6103,0.6194,0.6509,0.7364,0.4066,0.7035053968429565,0.653522789478302,2.2136,0.6261,0.5906,0.6269,0.6581,0.7506
315,0.6534,0.402,0.6549,0.6906,0.8338,0.6484,0.5842,0.6432,0.656,0.7926,0.6332,0.6247,0.632,0.6454,0.7177,0.5931,0.7179,0.5877,0.6376,0.6953,0.617,0.6022,0.6228,0.6524,0.7481,0.3976,0.7032580971717834,0.6529622077941895,2.2203,0.629,0.5862,0.6281,0.6564,0.7575
316,0.6535,0.4023,0.655,0.6917,0.8336,0.6479,0.5849,0.6426,0.6559,0.792,0.6334,0.6249,0.6323,0.6463,0.7182,0.5939,0.7193,0.5887,0.6387,0.6954,0.6159,0.6043,0.6222,0.6524,0.7459,0.4065,0.7059345245361328,0.6510928869247437,2.2272,0.6289,0.5871,0.6282,0.657,0.757
317,0.6473,0.4073,0.6533,0.6964,0.823,0.6471,0.5886,0.6403,0.6587,0.7884,0.6285,0.6315,0.6303,0.6492,0.7046,0.5867,0.727,0.5854,0.6376,0.6822,0.6076,0.6108,0.6187,0.6526,0.7312,0.4053,0.7021540403366089,0.6537502408027649,2.2341,0.6234,0.593,0.6256,0.6589,0.7459
318,0.6567,0.3977,0.6561,0.6884,0.8396,0.6478,0.582,0.6439,0.6531,0.7946,0.6359,0.6221,0.6338,0.6444,0.725,0.5953,0.7157,0.5886,0.6365,0.6998,0.6214,0.5988,0.6252,0.6532,0.7554,0.4028,0.7001950740814209,0.65403151512146,2.2409,0.6314,0.5833,0.6295,0.6551,0.7629
319,0.6481,0.406,0.6535,0.6953,0.8245,0.6461,0.5889,0.6392,0.6582,0.7875,0.6296,0.631,0.6308,0.6488,0.7057,0.587,0.7261,0.5853,0.6376,0.683,0.6092,0.6089,0.6196,0.6536,0.7333,0.3966,0.7037035226821899,0.6520465016365051,2.2477,0.624,0.5922,0.6257,0.6587,0.7468
320,0.6529,0.4016,0.6546,0.6907,0.8333,0.6465,0.5858,0.6413,0.6547,0.7905,0.6327,0.6276,0.6318,0.6465,0.7149,0.592,0.7225,0.5877,0.6391,0.6914,0.6151,0.6038,0.6221,0.6527,0.7445,0.6541,0.701486349105835,0.6536664366722107,2.2587,0.6278,0.5883,0.6275,0.6567,0.7549
321,0.6525,0.4034,0.6546,0.6939,0.8311,0.6484,0.5862,0.6423,0.6582,0.7908,0.6324,0.628,0.6318,0.6477,0.7144,0.5913,0.7229,0.5878,0.6388,0.6885,0.6127,0.6092,0.6209,0.6527,0.7397,0.5191,0.7007646560668945,0.6545083522796631,2.2675,0.6275,0.5899,0.6275,0.6583,0.7529
322,0.6557,0.3996,0.6557,0.6905,0.8373,0.6491,0.582,0.6443,0.6559,0.7938,0.6341,0.625,0.6324,0.6448,0.721,0.5945,0.7177,0.5892,0.6388,0.6957,0.6166,0.6047,0.6226,0.6524,0.747,0.4656,0.7011886835098267,0.65261310338974,2.2753,0.63,0.5858,0.6288,0.6565,0.759
323,0.6539,0.4017,0.6551,0.6924,0.8337,0.6488,0.5828,0.6434,0.6567,0.7926,0.6335,0.6241,0.6323,0.6461,0.7197,0.5941,0.7177,0.5891,0.6389,0.6944,0.6153,0.6054,0.6219,0.6519,0.745,0.4287,0.7054005265235901,0.6515676975250244,2.2826,0.6291,0.5863,0.6284,0.6572,0.7571
324,0.6484,0.4056,0.6536,0.6959,0.8247,0.647,0.5871,0.6406,0.6582,0.7887,0.6299,0.6305,0.631,0.6496,0.7074,0.5879,0.7259,0.5862,0.6387,0.6831,0.6081,0.6101,0.6193,0.6529,0.7319,0.4286,0.703673779964447,0.6500355005264282,2.2899,0.6243,0.5918,0.6261,0.6591,0.7472
325,0.6527,0.4017,0.6547,0.6919,0.8323,0.6479,0.585,0.6422,0.6568,0.7912,0.6328,0.6254,0.632,0.6465,0.717,0.5922,0.7211,0.5877,0.6383,0.6918,0.6155,0.605,0.6224,0.6541,0.7438,0.4139,0.700957715511322,0.6530500054359436,2.2969,0.6282,0.5876,0.6278,0.6575,0.7552
326,0.6514,0.4033,0.6542,0.6935,0.8298,0.6469,0.5856,0.6412,0.656,0.7901,0.6321,0.6268,0.6318,0.6481,0.7147,0.5917,0.7226,0.5877,0.6384,0.6904,0.6128,0.6077,0.621,0.6538,0.7393,0.4087,0.7037360668182373,0.6526609659194946,2.3038,0.627,0.5892,0.6272,0.658,0.7529
327,0.6543,0.4,0.6551,0.6904,0.8353,0.6486,0.5824,0.6437,0.6556,0.7933,0.634,0.6244,0.6325,0.6459,0.7199,0.5945,0.7177,0.5891,0.639,0.6957,0.6171,0.603,0.623,0.6531,0.7475,0.4118,0.7029512524604797,0.6516814231872559,2.3108,0.6297,0.5855,0.6287,0.6568,0.7583
328,0.6476,0.4071,0.6535,0.6971,0.823,0.647,0.5885,0.6399,0.6593,0.7879,0.6286,0.6314,0.6306,0.6505,0.7044,0.5868,0.7272,0.586,0.6386,0.6795,0.6083,0.6128,0.6195,0.6546,0.7306,0.4067,0.7061270475387573,0.6519467234611511,2.3177,0.6237,0.5934,0.6259,0.66,0.7451
329,0.649,0.403,0.6533,0.6902,0.828,0.6479,0.5861,0.6422,0.657,0.7907,0.6302,0.6298,0.6308,0.6471,0.7074,0.588,0.724,0.5852,0.6383,0.6864,0.6134,0.602,0.6216,0.6545,0.7407,0.4042,0.7043154239654541,0.6520903706550598,2.3246,0.6257,0.589,0.6266,0.6574,0.7506
330,0.6538,0.4014,0.6549,0.6911,0.8342,0.6494,0.5818,0.6443,0.6568,0.7936,0.6335,0.6267,0.6324,0.6471,0.7166,0.5924,0.7182,0.5883,0.6392,0.691,0.615,0.6062,0.6222,0.6541,0.7429,0.4116,0.7053412199020386,0.6518150568008423,2.3316,0.6288,0.5869,0.6284,0.6577,0.7557
331,0.6541,0.4002,0.6547,0.6891,0.8359,0.6491,0.5809,0.6443,0.656,0.7938,0.634,0.6262,0.6327,0.6467,0.7181,0.593,0.7186,0.5887,0.6393,0.692,0.6154,0.6066,0.6225,0.6547,0.7431,0.4001,0.7004498839378357,0.6531417369842529,2.3384,0.6291,0.5865,0.6286,0.6572,0.7566
332,0.6529,0.402,0.6544,0.6923,0.8324,0.6486,0.5814,0.6433,0.6563,0.7926,0.6328,0.6279,0.6321,0.6484,0.714,0.5909,0.7209,0.5878,0.6383,0.6882,0.6123,0.6114,0.621,0.6551,0.7369,0.403,0.7002750039100647,0.655236542224884,2.3452,0.6275,0.5887,0.6277,0.6581,0.7528
333,0.6481,0.4055,0.6533,0.6953,0.8246,0.6485,0.5858,0.6416,0.66,0.7891,0.6295,0.6313,0.6309,0.65,0.7057,0.5862,0.7263,0.5855,0.6383,0.6794,0.6058,0.6139,0.6183,0.654,0.7267,0.4012,0.7025946974754333,0.6531078219413757,2.352,0.6236,0.5926,0.6259,0.6595,0.7451
334,0.6497,0.4043,0.6538,0.6939,0.8274,0.6484,0.5862,0.6418,0.6595,0.7896,0.6311,0.6285,0.6315,0.6486,0.7106,0.5875,0.7247,0.5856,0.6373,0.6833,0.61,0.61,0.6202,0.6553,0.7334,0.4042,0.7050740122795105,0.6514619588851929,2.3589,0.6253,0.5907,0.6266,0.6589,0.7489
335,0.6499,0.4047,0.6538,0.6943,0.8275,0.6474,0.5879,0.6407,0.6594,0.788,0.6313,0.6296,0.6316,0.6492,0.7103,0.5872,0.7265,0.5859,0.6385,0.6816,0.6094,0.6113,0.6203,0.6561,0.7318,0.4021,0.7012665867805481,0.6523118019104004,2.3657,0.625,0.592,0.6265,0.6595,0.7478
336,0.652,0.4022,0.6545,0.6924,0.831,0.6482,0.5854,0.6423,0.6575,0.7908,0.633,0.6263,0.6324,0.648,0.715,0.5907,0.7223,0.5871,0.6385,0.6884,0.6144,0.6061,0.6221,0.6555,0.7409,0.3992,0.7048417329788208,0.6521162986755371,2.3725,0.6277,0.5885,0.6277,0.6584,0.7532
337,0.6468,0.4066,0.6531,0.697,0.8222,0.646,0.5894,0.639,0.6591,0.7862,0.6285,0.6323,0.6307,0.6512,0.7041,0.586,0.7309,0.5861,0.64,0.6774,0.605,0.6145,0.6182,0.6545,0.7251,0.405,0.701911211013794,0.6537123322486877,2.3794,0.6225,0.5947,0.6254,0.6604,0.743
338,0.6532,0.4016,0.6548,0.6928,0.8325,0.6487,0.5841,0.6427,0.6576,0.7913,0.6331,0.6269,0.6324,0.6483,0.7155,0.5918,0.7223,0.5885,0.6394,0.6884,0.6136,0.6101,0.6218,0.6555,0.7389,0.3984,0.7029521465301514,0.6526928544044495,2.3862,0.6281,0.589,0.628,0.6587,0.7533
339,0.6537,0.3995,0.655,0.6902,0.8343,0.6481,0.5844,0.6427,0.6561,0.7918,0.6337,0.6252,0.6326,0.6469,0.7172,0.592,0.7211,0.5875,0.6385,0.6909,0.617,0.6034,0.6234,0.6554,0.7456,0.4069,0.7018589377403259,0.653576672077179,2.3931,0.6289,0.5867,0.6282,0.6574,0.756
340,0.6488,0.4045,0.6535,0.6938,0.8262,0.6469,0.5888,0.6399,0.6594,0.7874,0.6301,0.6308,0.6312,0.6496,0.7063,0.5859,0.7285,0.5851,0.6384,0.6791,0.6087,0.6102,0.62,0.6562,0.7308,0.4015,0.7060822248458862,0.6501073241233826,2.3999,0.6241,0.5926,0.6259,0.6595,0.746
341,0.6533,0.3995,0.6547,0.6893,0.8343,0.6482,0.5848,0.6427,0.6568,0.7914,0.6336,0.6261,0.6325,0.6465,0.7165,0.5915,0.7221,0.5875,0.6394,0.6898,0.6165,0.6034,0.6234,0.6567,0.7439,0.3969,0.6990659832954407,0.6554000973701477,2.4067,0.6286,0.5872,0.6282,0.6577,0.7552
342,0.655,0.3983,0.655,0.6887,0.8373,0.6478,0.5819,0.6431,0.6547,0.7926,0.6349,0.625,0.6331,0.6463,0.7207,0.5934,0.7181,0.5887,0.6391,0.6925,0.6175,0.6055,0.6238,0.6564,0.7454,0.4025,0.704056978225708,0.6533133387565613,2.4135,0.6297,0.5858,0.6287,0.657,0.7577
343,0.6477,0.4039,0.6532,0.6928,0.8251,0.6479,0.5877,0.6413,0.6591,0.7885,0.6291,0.6314,0.6307,0.649,0.7042,0.5856,0.7276,0.5845,0.6388,0.6801,0.6086,0.6072,0.6199,0.6556,0.7314,0.4039,0.7004213333129883,0.6543706655502319,2.4204,0.6238,0.5916,0.6259,0.6591,0.7459
344,0.651,0.4034,0.6543,0.6941,0.8288,0.6485,0.5856,0.6418,0.6591,0.7894,0.6315,0.6292,0.6318,0.6494,0.7098,0.5877,0.7246,0.5862,0.6383,0.6816,0.6106,0.6118,0.6208,0.6566,0.7332,0.4018,0.704256534576416,0.6530759334564209,2.4272,0.6259,0.5909,0.627,0.6595,0.7486
345,0.6448,0.4068,0.6524,0.6945,0.8207,0.6478,0.5888,0.6405,0.6609,0.7872,0.6257,0.6346,0.6295,0.6502,0.6968,0.5834,0.7303,0.5844,0.6402,0.674,0.603,0.6124,0.6175,0.6543,0.7224,0.3971,0.703666627407074,0.6519906520843506,2.4339,0.6209,0.5946,0.6249,0.66,0.7402
346,0.6519,0.4002,0.6541,0.6897,0.8323,0.6482,0.5837,0.6428,0.6565,0.7914,0.6325,0.6283,0.6321,0.648,0.7121,0.5901,0.7222,0.587,0.6398,0.6863,0.6136,0.6055,0.6221,0.6566,0.739,0.4048,0.7009860277175903,0.6539178490638733,2.4408,0.6273,0.588,0.6276,0.6581,0.7522
347,0.6525,0.4005,0.6546,0.691,0.8324,0.6482,0.5859,0.6416,0.6587,0.7896,0.6332,0.6255,0.6324,0.6471,0.7158,0.5911,0.7207,0.5873,0.6388,0.6891,0.6151,0.6051,0.6226,0.6565,0.7415,0.4032,0.7035506963729858,0.6532973647117615,2.4477,0.628,0.5875,0.6277,0.6584,0.7537
348,0.6532,0.4011,0.6546,0.6913,0.8333,0.648,0.5847,0.6421,0.6575,0.7905,0.6342,0.627,0.6332,0.6491,0.716,0.5909,0.7209,0.5876,0.6396,0.6877,0.614,0.6085,0.6223,0.6576,0.7386,0.4013,0.705572783946991,0.6523018479347229,2.4546,0.6281,0.5884,0.628,0.659,0.7532
349,0.6544,0.3998,0.6552,0.6909,0.8351,0.649,0.5828,0.6433,0.6575,0.792,0.6345,0.6254,0.6331,0.6476,0.7182,0.5923,0.7187,0.5884,0.6397,0.6905,0.6152,0.6068,0.6225,0.6564,0.7415,0.4,0.7013948559761047,0.6542609930038452,2.4614,0.6291,0.5867,0.6285,0.6584,0.7555
350,0.6529,0.4013,0.6546,0.6919,0.8326,0.6492,0.5829,0.6433,0.6583,0.7917,0.6338,0.6264,0.6329,0.6489,0.7158,0.5911,0.7195,0.5882,0.6401,0.6876,0.6126,0.6082,0.6213,0.6556,0.7377,0.4017,0.7063369750976562,0.6520025730133057,2.4682,0.6279,0.5877,0.6281,0.659,0.7531
351,0.6523,0.4012,0.6543,0.6914,0.8321,0.6491,0.5842,0.643,0.6586,0.791,0.6332,0.6277,0.6326,0.6491,0.7136,0.5898,0.7225,0.5873,0.6398,0.6853,0.6117,0.6096,0.6211,0.6565,0.7354,0.4011,0.7040092945098877,0.6511088609695435,2.475,0.6272,0.589,0.6277,0.6591,0.7515
352,0.6547,0.3985,0.6552,0.6895,0.8362,0.6492,0.5816,0.6441,0.6567,0.7929,0.6347,0.6255,0.6332,0.6472,0.7188,0.5921,0.7188,0.5881,0.6391,0.6904,0.6158,0.6064,0.623,0.6571,0.742,0.4059,0.7004926204681396,0.6543567180633545,2.4819,0.6293,0.5862,0.6287,0.6579,0.7561
353,0.6521,0.4008,0.6542,0.691,0.8319,0.6489,0.5859,0.6423,0.6596,0.7899,0.6332,0.6276,0.6326,0.6487,0.7139,0.5896,0.7245,0.5872,0.6403,0.6843,0.6127,0.6089,0.6217,0.6575,0.7364,0.3972,0.7016921639442444,0.6524375081062317,2.4887,0.6273,0.5895,0.6276,0.6594,0.7513
354,0.6572,0.3958,0.6561,0.6869,0.8413,0.6494,0.58,0.6447,0.6559,0.794,0.6372,0.622,0.6349,0.6459,0.7256,0.5952,0.7149,0.5897,0.6393,0.6953,0.6193,0.6027,0.6244,0.6556,0.7492,0.407,0.7030521035194397,0.6532953977584839,2.4956,0.6317,0.5831,0.63,0.6567,0.7611
355,0.6465,0.4048,0.6529,0.6933,0.8231,0.6465,0.5909,0.6388,0.6614,0.7852,0.6285,0.6324,0.6307,0.6497,0.702,0.5823,0.7314,0.5833,0.6386,0.6736,0.6062,0.6098,0.6193,0.6572,0.7262,0.4034,0.7018322348594666,0.6534230709075928,2.5024,0.622,0.5939,0.625,0.66,0.742
356,0.6505,0.4022,0.6538,0.6925,0.8291,0.6494,0.5858,0.6425,0.661,0.7895,0.6324,0.6289,0.6324,0.65,0.7111,0.5873,0.7251,0.5861,0.639,0.6815,0.6092,0.6105,0.6201,0.6563,0.7314,0.3989,0.7031046152114868,0.6526370048522949,2.5092,0.6258,0.5905,0.627,0.6598,0.7485
357,0.6513,0.4015,0.654,0.6912,0.8308,0.6497,0.5852,0.6427,0.6614,0.7897,0.6329,0.6291,0.6326,0.6494,0.7117,0.5873,0.7243,0.586,0.6388,0.6816,0.6093,0.6097,0.6203,0.657,0.7313,0.4024,0.7029575705528259,0.652397632598877,2.516,0.6261,0.59,0.6271,0.6596,0.749
358,0.6507,0.4017,0.6536,0.6904,0.8304,0.6498,0.5834,0.6433,0.6603,0.7907,0.6323,0.63,0.6324,0.6496,0.7095,0.5871,0.7236,0.5862,0.6396,0.6806,0.6083,0.6102,0.6198,0.6563,0.73,0.3997,0.7009510397911072,0.6519626975059509,2.5228,0.6256,0.5898,0.6271,0.6592,0.7482
359,0.6513,0.4026,0.6541,0.693,0.8299,0.6495,0.586,0.6423,0.6618,0.789,0.6318,0.6305,0.6321,0.6499,0.7096,0.5861,0.7267,0.586,0.6393,0.6784,0.6075,0.6136,0.6197,0.6571,0.7278,0.4025,0.699084997177124,0.6549273133277893,2.5297,0.6252,0.5919,0.6268,0.6602,0.7469
360,0.6493,0.4025,0.6536,0.6926,0.8272,0.6487,0.5875,0.6416,0.6613,0.788,0.6303,0.6315,0.6314,0.6498,0.7059,0.5854,0.729,0.5851,0.6396,0.6779,0.6074,0.6098,0.6197,0.6572,0.7281,0.4013,0.7020185589790344,0.6539158225059509,2.5365,0.6242,0.5921,0.6263,0.6601,0.7454
361,0.6556,0.3955,0.6553,0.6852,0.8398,0.6491,0.5804,0.6445,0.6557,0.7939,0.6363,0.6231,0.6343,0.6454,0.7229,0.5946,0.7158,0.589,0.6401,0.6955,0.6185,0.5992,0.6239,0.6553,0.7487,0.44,0.7057383060455322,0.6510828733444214,2.5439,0.6308,0.5828,0.6294,0.6563,0.7602
362,0.6537,0.3984,0.6547,0.6883,0.8355,0.6498,0.5816,0.6443,0.6579,0.7929,0.6349,0.626,0.6336,0.648,0.7173,0.5906,0.7196,0.5873,0.6393,0.6879,0.6155,0.6046,0.623,0.6577,0.7415,0.4085,0.7019298076629639,0.6541572213172913,2.5509,0.6289,0.586,0.6286,0.6582,0.755
363,0.6528,0.4004,0.6544,0.6909,0.833,0.6502,0.5829,0.6436,0.6603,0.791,0.6343,0.6272,0.6334,0.6497,0.7155,0.5899,0.7216,0.5878,0.6401,0.6838,0.612,0.6107,0.6214,0.657,0.7354,0.3985,0.700660765171051,0.6529302597045898,2.5576,0.6278,0.5886,0.6281,0.6596,0.7517
364,0.652,0.4004,0.6539,0.6898,0.8323,0.6485,0.5839,0.6426,0.6582,0.7902,0.6338,0.6276,0.6331,0.6495,0.7145,0.5893,0.7216,0.5871,0.6406,0.6842,0.6119,0.6075,0.6214,0.6568,0.7359,0.4026,0.7038711309432983,0.6528505086898804,2.5645,0.6271,0.5882,0.6276,0.659,0.7514
365,0.6488,0.4045,0.6534,0.6948,0.8257,0.6488,0.5871,0.6413,0.6621,0.7876,0.6302,0.6312,0.6317,0.6518,0.7059,0.585,0.7273,0.5855,0.6396,0.6762,0.6036,0.615,0.6176,0.6551,0.7224,0.4102,0.7016590237617493,0.6520065665245056,2.5715,0.6233,0.593,0.6259,0.6607,0.7436
366,0.653,0.3984,0.6545,0.6886,0.8342,0.6487,0.5836,0.6428,0.6581,0.7905,0.6343,0.6252,0.6331,0.6473,0.7178,0.5907,0.7202,0.5872,0.64,0.688,0.6151,0.6034,0.6228,0.6575,0.7411,0.3962,0.7026519179344177,0.6541133522987366,2.5782,0.6284,0.5862,0.6281,0.6583,0.7543
367,0.6539,0.3985,0.6547,0.6898,0.835,0.6488,0.5826,0.643,0.6579,0.791,0.6351,0.6245,0.6336,0.6479,0.7199,0.5913,0.7184,0.5876,0.6393,0.6889,0.6151,0.6052,0.6227,0.657,0.7411,0.4012,0.7028387784957886,0.653692364692688,2.585,0.6288,0.5858,0.6283,0.6584,0.7552
368,0.6525,0.3988,0.6542,0.6889,0.8335,0.6496,0.5848,0.6429,0.6605,0.7902,0.6342,0.6265,0.6331,0.6479,0.7163,0.5896,0.722,0.5868,0.6399,0.6855,0.6148,0.6052,0.6229,0.6585,0.7397,0.4019,0.7014725804328918,0.6535168290138245,2.5918,0.6281,0.5875,0.628,0.6591,0.753
369,0.6537,0.3986,0.6547,0.6888,0.8351,0.6496,0.5837,0.6431,0.6598,0.7909,0.6353,0.6254,0.6338,0.6479,0.7189,0.5912,0.7198,0.5879,0.6402,0.6879,0.6158,0.6052,0.6233,0.6587,0.7412,0.4043,0.7029420733451843,0.6531118154525757,2.5987,0.6291,0.5865,0.6286,0.6591,0.7548
370,0.6572,0.3954,0.6562,0.6867,0.841,0.6498,0.5801,0.6448,0.6569,0.7936,0.6373,0.6216,0.635,0.6459,0.7254,0.5953,0.7143,0.5899,0.6401,0.6956,0.6188,0.6012,0.6241,0.6554,0.7487,0.4049,0.7021162509918213,0.6537482738494873,2.6056,0.6317,0.5825,0.63,0.657,0.7609
371,0.6517,0.4004,0.654,0.6909,0.8315,0.6495,0.5843,0.6427,0.6608,0.7897,0.6339,0.6272,0.6332,0.6493,0.715,0.5887,0.7229,0.5867,0.6397,0.6834,0.6115,0.6084,0.6211,0.6577,0.7343,0.3976,0.703484058380127,0.6540255546569824,2.6123,0.6271,0.5886,0.6275,0.6597,0.7508
372,0.6494,0.4013,0.6532,0.6901,0.8287,0.6476,0.5874,0.6408,0.6598,0.7873,0.6319,0.6296,0.6322,0.6495,0.7099,0.5861,0.7266,0.5853,0.6399,0.6796,0.61,0.6073,0.621,0.6585,0.7319,0.3997,0.7070789933204651,0.6500953435897827,2.6191,0.625,0.5904,0.6265,0.6596,0.7475
373,0.6525,0.399,0.6542,0.6887,0.8337,0.6481,0.5847,0.6419,0.6586,0.7893,0.6352,0.6265,0.6339,0.6489,0.7175,0.5888,0.7212,0.5866,0.6395,0.6849,0.6147,0.6055,0.6232,0.6596,0.739,0.4064,0.6990562677383423,0.6548195481300354,2.626,0.6279,0.5874,0.628,0.6591,0.7529
374,0.651,0.4011,0.6539,0.6917,0.8301,0.6494,0.5849,0.6422,0.6615,0.789,0.6333,0.6276,0.6329,0.6497,0.7137,0.5873,0.7233,0.5866,0.6404,0.6799,0.6089,0.6108,0.62,0.6564,0.7307,0.4043,0.7042741775512695,0.6503467559814453,2.6329,0.626,0.5895,0.6271,0.6599,0.7487
375,0.6536,0.3978,0.6547,0.6873,0.8357,0.6488,0.5847,0.6425,0.6592,0.7898,0.6359,0.6238,0.6342,0.6471,0.7211,0.5908,0.7198,0.5872,0.6396,0.6883,0.6166,0.603,0.6236,0.6584,0.743,0.3991,0.7022734880447388,0.6526888608932495,2.6397,0.6291,0.5858,0.6284,0.6583,0.7556
376,0.6499,0.4031,0.6537,0.6941,0.8275,0.648,0.5866,0.6404,0.6617,0.7867,0.6322,0.6297,0.6325,0.651,0.711,0.5858,0.7249,0.586,0.6398,0.6773,0.6051,0.615,0.6185,0.6561,0.7243,0.407,0.7053227424621582,0.6520823836326599,2.6466,0.6242,0.5919,0.6262,0.6605,0.7454
377,0.6537,0.3982,0.6547,0.689,0.8351,0.6502,0.5834,0.6437,0.6606,0.7908,0.6354,0.6253,0.6338,0.6478,0.7196,0.5899,0.7196,0.5873,0.6396,0.686,0.6142,0.6073,0.6226,0.6582,0.7386,0.4007,0.7000302672386169,0.6549652218818665,2.6534,0.6287,0.5868,0.6284,0.659,0.754
378,0.6523,0.3991,0.6544,0.6909,0.832,0.6494,0.5853,0.6421,0.6617,0.7888,0.634,0.6254,0.6328,0.6473,0.7175,0.5891,0.7212,0.5867,0.6391,0.6849,0.6131,0.6075,0.622,0.6581,0.7368,0.4055,0.7011533975601196,0.6545402407646179,2.6603,0.6276,0.5877,0.6276,0.6594,0.752
379,0.6479,0.4033,0.6531,0.6932,0.8252,0.6462,0.5891,0.6389,0.6606,0.7848,0.6305,0.6308,0.6316,0.6506,0.7078,0.5843,0.7276,0.5852,0.6403,0.675,0.6046,0.6122,0.6185,0.6561,0.7239,0.4012,0.6982479691505432,0.6553123593330383,2.6671,0.6227,0.5926,0.6255,0.6602,0.7433
380,0.6538,0.3974,0.6547,0.6884,0.8355,0.6493,0.5821,0.6435,0.6583,0.7913,0.6354,0.6239,0.6337,0.6471,0.7209,0.5913,0.717,0.5878,0.6398,0.6883,0.6155,0.6042,0.6229,0.6564,0.7423,0.4032,0.7030499577522278,0.653502881526947,2.674,0.6291,0.5849,0.6285,0.658,0.7557
381,0.6536,0.3969,0.6546,0.6872,0.8357,0.648,0.5846,0.6423,0.6575,0.7895,0.6359,0.6238,0.6342,0.6473,0.7216,0.5906,0.7199,0.587,0.6398,0.688,0.6171,0.6019,0.624,0.6586,0.7439,0.3975,0.7011208534240723,0.6536086201667786,2.6807,0.629,0.5854,0.6284,0.6581,0.7557
382,0.6536,0.3976,0.6547,0.6891,0.8348,0.6497,0.5828,0.6435,0.6594,0.791,0.635,0.6248,0.6335,0.6476,0.7195,0.59,0.72,0.5871,0.6394,0.6862,0.6145,0.606,0.6225,0.6576,0.7396,0.4048,0.7005965113639832,0.6539776921272278,2.6876,0.6286,0.5862,0.6283,0.6586,0.7542
383,0.6458,0.4043,0.6527,0.6941,0.822,0.6501,0.5879,0.6418,0.6659,0.7863,0.6286,0.6317,0.6308,0.6507,0.7033,0.5828,0.7291,0.5842,0.6402,0.6735,0.6009,0.6118,0.6164,0.6533,0.7197,0.4079,0.7027277946472168,0.6536584496498108,2.6945,0.6216,0.593,0.6252,0.6608,0.741
384,0.6453,0.4048,0.6529,0.6961,0.8204,0.6493,0.5889,0.6408,0.6659,0.7853,0.628,0.6317,0.6306,0.651,0.7027,0.5829,0.7299,0.5844,0.6406,0.6732,0.6006,0.6124,0.6164,0.6536,0.719,0.4018,0.7026945948600769,0.6548235416412354,2.7014,0.6212,0.5935,0.625,0.6614,0.7401
385,0.6513,0.4018,0.6542,0.695,0.8289,0.6499,0.5838,0.6425,0.6622,0.7887,0.6332,0.6272,0.633,0.6514,0.7144,0.5881,0.7232,0.5874,0.6405,0.6796,0.6068,0.6154,0.6188,0.6553,0.7273,0.3978,0.7023414969444275,0.6533691883087158,2.7081,0.6259,0.5903,0.6272,0.6609,0.7478
386,0.6527,0.3984,0.6543,0.6898,0.8333,0.6498,0.5831,0.6432,0.6603,0.7902,0.6352,0.6256,0.6339,0.6495,0.7176,0.5893,0.7213,0.5872,0.6402,0.6836,0.6129,0.6083,0.6219,0.6582,0.7363,0.4045,0.6989420056343079,0.655914843082428,2.715,0.628,0.5873,0.6281,0.6596,0.7522
387,0.6491,0.4001,0.6531,0.6897,0.8283,0.6489,0.5858,0.6418,0.6617,0.7878,0.6313,0.6302,0.6317,0.6489,0.7086,0.5858,0.7263,0.5856,0.6414,0.6787,0.6067,0.6076,0.6195,0.6569,0.7274,0.3985,0.6967558264732361,0.6556494832038879,2.7218,0.6244,0.59,0.6263,0.6597,0.7462
388,0.6536,0.3976,0.6546,0.6897,0.8346,0.6505,0.5816,0.6441,0.6604,0.7912,0.6354,0.6249,0.6339,0.6486,0.7195,0.5901,0.7197,0.5876,0.6402,0.6852,0.6125,0.6078,0.6216,0.6569,0.7366,0.4006,0.7013351321220398,0.6550729274749756,2.7286,0.6284,0.5863,0.6284,0.6592,0.7534
389,0.6525,0.3987,0.6543,0.6901,0.8329,0.651,0.5831,0.6439,0.6627,0.7901,0.6353,0.6264,0.6341,0.65,0.7171,0.5891,0.7213,0.5873,0.641,0.6828,0.6098,0.6099,0.6204,0.6577,0.7314,0.4036,0.7003681659698486,0.6547138094902039,2.7355,0.6275,0.5879,0.628,0.6603,0.7509
390,0.6515,0.4005,0.654,0.6924,0.8305,0.6498,0.5846,0.6424,0.6624,0.7885,0.6331,0.628,0.6329,0.6505,0.7137,0.5884,0.7241,0.5877,0.6421,0.6797,0.607,0.6139,0.6193,0.6565,0.7271,0.4005,0.7022526860237122,0.6535547375679016,2.7423,0.626,0.5902,0.6273,0.6608,0.7479
391,0.6488,0.4009,0.6532,0.6913,0.8272,0.6478,0.5875,0.6405,0.6613,0.7862,0.6313,0.6294,0.6319,0.6499,0.7095,0.5856,0.7279,0.5856,0.6416,0.6773,0.6067,0.6086,0.6195,0.6573,0.7269,0.4085,0.698322057723999,0.6566569805145264,2.7492,0.624,0.5909,0.6261,0.6603,0.7454
392,0.653,0.3979,0.6545,0.6895,0.8337,0.6504,0.5843,0.6433,0.6622,0.7895,0.6354,0.6253,0.634,0.6486,0.7186,0.589,0.7217,0.5871,0.6407,0.6833,0.6122,0.6069,0.6218,0.6586,0.7352,0.3964,0.7027875185012817,0.653137743473053,2.756,0.628,0.5872,0.6281,0.6599,0.7521
393,0.6535,0.3968,0.6547,0.6886,0.8348,0.6501,0.5848,0.643,0.6619,0.7891,0.6352,0.6243,0.6337,0.6474,0.7195,0.5892,0.7227,0.5866,0.6397,0.6845,0.6143,0.6057,0.6229,0.6598,0.7378,0.4005,0.7005358338356018,0.6551966071128845,2.7628,0.6285,0.5869,0.6282,0.6595,0.7531
394,0.65,0.4018,0.6537,0.6939,0.8276,0.6496,0.5863,0.6414,0.6649,0.7865,0.6326,0.6283,0.6328,0.6513,0.7122,0.5869,0.7262,0.5873,0.6423,0.6766,0.6032,0.6158,0.6175,0.6549,0.7217,0.4019,0.7032932639122009,0.6516016125679016,2.7696,0.6245,0.5917,0.6265,0.6615,0.7449
395,0.6525,0.3969,0.6543,0.6884,0.8337,0.6502,0.584,0.6432,0.662,0.7894,0.6352,0.6255,0.6339,0.6484,0.7175,0.5896,0.7225,0.5873,0.6417,0.6838,0.6126,0.6056,0.622,0.6591,0.7356,0.4049,0.6979681849479675,0.6561921238899231,2.7765,0.628,0.5869,0.6281,0.6599,0.752
396,0.6494,0.4012,0.6534,0.6929,0.8274,0.6498,0.5869,0.6416,0.6652,0.7864,0.6322,0.6291,0.6324,0.6505,0.7113,0.5857,0.7272,0.5863,0.6417,0.6756,0.6033,0.614,0.6175,0.6551,0.7219,0.4044,0.7002341151237488,0.6532973647117615,2.7833,0.6241,0.5917,0.6262,0.6611,0.7445
397,0.6494,0.4004,0.6534,0.6912,0.8281,0.6492,0.5872,0.6413,0.6639,0.7865,0.6318,0.6294,0.6321,0.6496,0.7107,0.5856,0.7279,0.5858,0.642,0.676,0.6044,0.6109,0.6183,0.6562,0.7235,0.3998,0.6986806988716125,0.656365692615509,2.7901,0.6241,0.5912,0.6262,0.6606,0.745
398,0.6493,0.4009,0.6534,0.6915,0.8278,0.6501,0.5865,0.6421,0.6648,0.7872,0.6325,0.6286,0.6326,0.6501,0.7116,0.5855,0.7262,0.5857,0.6416,0.6769,0.6043,0.6102,0.618,0.6554,0.7238,0.3988,0.7040359377861023,0.6511567234992981,2.7969,0.6243,0.5905,0.6264,0.6607,0.7455
399,0.6532,0.3979,0.6546,0.6902,0.8337,0.65,0.5846,0.6426,0.6629,0.7884,0.6358,0.6257,0.6343,0.6495,0.7185,0.5883,0.7245,0.5867,0.6409,0.6817,0.61,0.6091,0.6208,0.6587,0.7311,0.398,0.6997441649436951,0.6535048484802246,2.8038,0.6275,0.5884,0.6278,0.6604,0.7507
401,0.6869,0.3325,0.6853,0.7149,0.8567,0.6509,0.581,0.6435,0.7111,0.7623,0.6708,0.5691,0.6708,0.6712,0.752,0.6019,0.6433,0.5986,0.6782,0.7024,0.6114,0.571,0.6382,0.7222,0.7091,1.5811,0.6437783241271973,0.6828455924987793,0.0264,0.6444,0.5394,0.6473,0.6995,0.7565
402,0.6773,0.3416,0.6817,0.7538,0.8331,0.6545,0.5624,0.6463,0.7163,0.7619,0.6526,0.6096,0.6609,0.7091,0.6991,0.6034,0.6347,0.6023,0.6841,0.7106,0.6046,0.6166,0.641,0.7265,0.6985,0.6108,0.6098092198371887,0.7048466801643372,0.0367,0.6385,0.553,0.6464,0.718,0.7406
403,0.6747,0.3518,0.6837,0.786,0.8206,0.6337,0.5841,0.6313,0.7112,0.7378,0.6376,0.6447,0.6622,0.7215,0.664,0.5826,0.7095,0.6028,0.6969,0.6705,0.5638,0.7628,0.6297,0.7101,0.649,0.5485,0.5811152458190918,0.7255709767341614,0.0459,0.6185,0.6106,0.6419,0.7251,0.7084
404,0.6664,0.3541,0.6812,0.7881,0.8128,0.6324,0.5972,0.6335,0.7202,0.7358,0.6538,0.587,0.6681,0.7261,0.7025,0.6056,0.6526,0.6039,0.6857,0.7089,0.6065,0.6939,0.6405,0.7305,0.6983,0.5114,0.5636404752731323,0.7365036606788635,0.0545,0.6329,0.577,0.6454,0.7301,0.7317
405,0.6668,0.3547,0.6849,0.7931,0.8127,0.6319,0.6022,0.6329,0.7205,0.7353,0.6558,0.5847,0.6698,0.7248,0.7024,0.595,0.7017,0.6014,0.6919,0.6924,0.5813,0.7395,0.6324,0.7183,0.6709,0.4823,0.5448066592216492,0.7470892667770386,0.0626,0.6262,0.5966,0.6443,0.7297,0.7227
406,0.7496,0.2877,0.7313,0.8188,0.8787,0.6107,0.6411,0.6246,0.712,0.7141,0.68,0.5614,0.6751,0.6925,0.734,0.6064,0.6795,0.5996,0.6782,0.7234,0.6055,0.6972,0.6457,0.7366,0.6986,0.4494,0.5326275825500488,0.7562583684921265,0.0703,0.6504,0.5734,0.6553,0.7276,0.7498
407,0.739,0.2915,0.7209,0.8229,0.8697,0.6486,0.5849,0.6434,0.7213,0.7469,0.6912,0.5235,0.6847,0.7164,0.7539,0.6094,0.6655,0.6014,0.6779,0.7245,0.6066,0.6958,0.6395,0.73,0.7003,0.4371,0.519135057926178,0.7630553841590881,0.0777,0.659,0.5522,0.658,0.7337,0.7591
408,0.7097,0.3191,0.6998,0.8177,0.8462,0.6639,0.5731,0.6519,0.7262,0.7604,0.6806,0.5656,0.6821,0.7342,0.7138,0.6068,0.6911,0.6037,0.6844,0.7114,0.5854,0.7699,0.6339,0.7169,0.6736,0.4321,0.508012056350708,0.7715621590614319,0.085,0.6493,0.5838,0.6543,0.7359,0.7411
409,0.7569,0.2752,0.7351,0.8224,0.8842,0.6923,0.5348,0.6821,0.7232,0.7847,0.6958,0.5198,0.6891,0.7138,0.7539,0.607,0.6951,0.597,0.6705,0.7274,0.6024,0.7118,0.6368,0.714,0.7015,0.4316,0.5033000707626343,0.7748838663101196,0.0923,0.6709,0.5473,0.668,0.7288,0.7703
410,0.7778,0.2465,0.7573,0.8139,0.8996,0.7172,0.4963,0.71,0.7312,0.8077,0.692,0.5284,0.6873,0.6995,0.754,0.6164,0.6695,0.6062,0.6834,0.7315,0.5992,0.7638,0.6336,0.7038,0.6989,0.4249,0.493913859128952,0.778838038444519,0.0996,0.6805,0.5409,0.6789,0.7264,0.7783
411,0.7086,0.3274,0.7045,0.826,0.844,0.6516,0.5986,0.6453,0.7266,0.7494,0.6809,0.565,0.6834,0.7353,0.7258,0.6063,0.7155,0.6004,0.683,0.7172,0.583,0.8076,0.6351,0.7182,0.6753,0.4228,0.48390763998031616,0.7840809226036072,0.1067,0.6461,0.6028,0.6537,0.7378,0.7423
412,0.7537,0.2813,0.7316,0.8366,0.8786,0.674,0.5632,0.6648,0.7291,0.7671,0.6956,0.5538,0.69,0.735,0.7343,0.6047,0.7123,0.6,0.6809,0.7157,0.5971,0.7852,0.6391,0.7208,0.6903,0.4224,0.4787047505378723,0.7865986227989197,0.1139,0.665,0.5792,0.6651,0.7405,0.7572
413,0.77,0.2665,0.7427,0.8327,0.8891,0.6955,0.5384,0.6787,0.74,0.788,0.7028,0.5297,0.6941,0.7293,0.7535,0.6141,0.706,0.6066,0.6849,0.7217,0.6003,0.7596,0.6343,0.7129,0.6944,0.4191,0.47319579124450684,0.7909537553787231,0.121,0.6765,0.56,0.6713,0.74,0.7693
414,0.7137,0.3128,0.7061,0.8275,0.8493,0.657,0.6049,0.6494,0.7281,0.7533,0.684,0.5502,0.6847,0.7355,0.7336,0.6103,0.7112,0.6022,0.6788,0.725,0.5827,0.8412,0.6363,0.7188,0.6729,0.4218,0.47170543670654297,0.7919373512268066,0.1282,0.6495,0.6041,0.6557,0.7377,0.7468
415,0.7199,0.3042,0.7052,0.8195,0.855,0.6655,0.5869,0.6535,0.7289,0.7619,0.6836,0.554,0.6855,0.7404,0.7316,0.6173,0.6962,0.6069,0.6874,0.7308,0.5837,0.8386,0.6306,0.7101,0.6772,0.4198,0.4616272449493408,0.7952730059623718,0.1353,0.654,0.596,0.6563,0.7373,0.7513
416,0.6959,0.3368,0.6953,0.8225,0.833,0.6818,0.5613,0.6713,0.7297,0.7723,0.6784,0.565,0.6881,0.7523,0.7315,0.6172,0.695,0.607,0.6862,0.7275,0.585,0.8269,0.6335,0.708,0.6775,0.4235,0.45380428433418274,0.8023333549499512,0.1425,0.6517,0.597,0.659,0.7397,0.7484
417,0.6787,0.3587,0.686,0.8135,0.8177,0.6867,0.5604,0.6701,0.7334,0.7799,0.6547,0.6088,0.683,0.7493,0.6981,0.6083,0.7056,0.6021,0.6788,0.7173,0.5645,0.9236,0.626,0.7011,0.6519,0.4254,0.45318716764450073,0.8019323945045471,0.1497,0.6386,0.6314,0.6534,0.7352,0.733
418,0.7034,0.3237,0.703,0.825,0.841,0.6922,0.5439,0.6781,0.7338,0.7868,0.6507,0.6029,0.6833,0.7511,0.6875,0.617,0.6915,0.6045,0.6768,0.737,0.5882,0.8009,0.6362,0.709,0.6834,0.4238,0.44712600111961365,0.8052700161933899,0.1569,0.6503,0.5926,0.661,0.7391,0.7471
419,0.7404,0.293,0.7192,0.8398,0.8669,0.66,0.5989,0.652,0.735,0.7571,0.7013,0.5249,0.6957,0.7458,0.7568,0.6255,0.682,0.612,0.6824,0.7421,0.5948,0.8288,0.6356,0.7172,0.6866,0.4211,0.437944233417511,0.8095793128013611,0.1641,0.6644,0.5855,0.6629,0.744,0.7619
420,0.7178,0.3041,0.7096,0.8298,0.8518,0.6856,0.5492,0.6717,0.7414,0.78,0.6826,0.548,0.6907,0.7506,0.7322,0.6194,0.691,0.6064,0.6772,0.7377,0.601,0.8041,0.6386,0.712,0.6989,0.4168,0.436909019947052,0.8090705871582031,0.1711,0.6613,0.5793,0.6634,0.7422,0.7601
421,0.6997,0.331,0.6999,0.8205,0.8382,0.6545,0.6138,0.6505,0.7417,0.7529,0.667,0.5487,0.6862,0.7485,0.7251,0.6001,0.76,0.5998,0.6844,0.6997,0.5586,0.9499,0.6257,0.6971,0.6474,0.4178,0.4315265715122223,0.8136112093925476,0.1782,0.636,0.6407,0.6524,0.7384,0.7327
422,0.7093,0.3171,0.7024,0.8278,0.8447,0.7144,0.5082,0.7009,0.7394,0.805,0.6604,0.5783,0.6863,0.7544,0.7099,0.6274,0.6551,0.6123,0.6792,0.7538,0.5857,0.8875,0.6318,0.7053,0.6807,0.4231,0.4307760000228882,0.8129528760910034,0.1854,0.6594,0.5892,0.6667,0.7412,0.7588
423,0.7187,0.3051,0.7062,0.8258,0.8532,0.6729,0.5681,0.6614,0.7452,0.7716,0.6926,0.5291,0.6938,0.7509,0.7484,0.6185,0.6993,0.6055,0.6768,0.7385,0.5804,0.9026,0.6281,0.7037,0.6749,0.4224,0.42008131742477417,0.8181678652763367,0.1926,0.6566,0.6008,0.659,0.7405,0.7573
424,0.7477,0.2818,0.7253,0.84,0.8732,0.6972,0.5343,0.6887,0.7208,0.7895,0.6918,0.5303,0.6931,0.7475,0.7439,0.6292,0.6427,0.6133,0.6728,0.7552,0.5984,0.793,0.6291,0.6934,0.6998,0.4192,0.4210031032562256,0.819518506526947,0.1997,0.6729,0.5564,0.6699,0.7349,0.7723
425,0.7307,0.2973,0.7173,0.837,0.862,0.6866,0.5636,0.6741,0.7339,0.7787,0.6856,0.57,0.6914,0.7457,0.7307,0.6123,0.7104,0.6031,0.68,0.7254,0.5782,0.9339,0.6314,0.7044,0.671,0.4155,0.42200767993927,0.8185967803001404,0.2067,0.6587,0.615,0.6635,0.7402,0.7536
426,0.7043,0.328,0.6964,0.8286,0.8376,0.6882,0.5547,0.6735,0.7356,0.7794,0.6781,0.5446,0.6904,0.7566,0.7297,0.6242,0.6646,0.6112,0.6814,0.7407,0.5833,0.8506,0.6268,0.6948,0.6775,0.4217,0.42120397090911865,0.8189778327941895,0.2139,0.6556,0.5885,0.6597,0.7394,0.753
427,0.7418,0.2984,0.7206,0.8454,0.8671,0.6475,0.6465,0.6478,0.7377,0.745,0.7014,0.5287,0.6959,0.7438,0.7621,0.6141,0.7076,0.6048,0.68,0.7296,0.5838,0.9772,0.6366,0.7149,0.6752,0.4124,0.41436097025871277,0.8222416639328003,0.2209,0.6577,0.6317,0.6611,0.7444,0.7558
428,0.7284,0.3024,0.7141,0.8384,0.8593,0.6621,0.5906,0.6549,0.747,0.7588,0.6887,0.5507,0.6933,0.7493,0.741,0.614,0.712,0.6038,0.6777,0.7337,0.574,0.9423,0.6285,0.6955,0.6683,0.4203,0.4047832190990448,0.8265649080276489,0.228,0.6534,0.6196,0.6589,0.7416,0.7522
429,0.7849,0.2478,0.7576,0.8403,0.8989,0.6803,0.5815,0.6668,0.7403,0.7755,0.7071,0.4814,0.701,0.7175,0.7922,0.6351,0.6393,0.6188,0.6763,0.7645,0.6094,0.7862,0.6358,0.7083,0.7107,0.4189,0.4100508391857147,0.8233708739280701,0.2351,0.6834,0.5472,0.676,0.7365,0.7884
430,0.7411,0.2881,0.7231,0.8442,0.8691,0.6841,0.5654,0.6706,0.7405,0.7762,0.6826,0.548,0.6921,0.7511,0.7343,0.6074,0.7299,0.6017,0.6818,0.717,0.5761,0.9713,0.6307,0.7025,0.6687,0.4206,0.4031952917575836,0.8276621699333191,0.2423,0.6583,0.6205,0.6636,0.744,0.7531
431,0.7383,0.2886,0.7196,0.8438,0.8663,0.6831,0.5433,0.6686,0.7373,0.7808,0.6921,0.5373,0.6954,0.7536,0.7471,0.6336,0.6369,0.6185,0.6845,0.7537,0.5997,0.8241,0.6333,0.7004,0.6998,0.42,0.40076208114624023,0.8285000920295715,0.2494,0.6694,0.566,0.6671,0.7439,0.7695
432,0.752,0.2767,0.7292,0.8463,0.877,0.6994,0.5512,0.6876,0.7326,0.7944,0.693,0.5451,0.6962,0.7552,0.748,0.6215,0.6985,0.6096,0.6821,0.7435,0.5911,0.9116,0.6326,0.6972,0.6912,0.4285,0.39402997493743896,0.832490086555481,0.2567,0.6714,0.5966,0.671,0.7427,0.7708
433,0.7418,0.2819,0.7233,0.8384,0.8706,0.7007,0.5162,0.6849,0.7431,0.7985,0.7003,0.5295,0.6977,0.745,0.7608,0.6297,0.6383,0.6142,0.673,0.7607,0.6023,0.7976,0.6323,0.6922,0.7084,0.4175,0.400786817073822,0.8286137580871582,0.2638,0.675,0.5527,0.6705,0.7383,0.7798
434,0.7553,0.2751,0.7287,0.838,0.8788,0.6896,0.5519,0.6744,0.74,0.7866,0.7054,0.5131,0.6985,0.7423,0.7666,0.6307,0.6634,0.6153,0.6815,0.7525,0.588,0.8878,0.6279,0.6983,0.6852,0.4164,0.39215993881225586,0.8326137661933899,0.2709,0.6738,0.5783,0.669,0.74,0.7739
435,0.7453,0.2853,0.7236,0.846,0.8717,0.6744,0.5773,0.6625,0.7355,0.7731,0.69,0.5445,0.696,0.7595,0.7422,0.6263,0.6934,0.613,0.6853,0.7436,0.5868,0.9098,0.6329,0.6985,0.6834,0.4271,0.38725942373275757,0.8355125784873962,0.2781,0.6646,0.6021,0.6656,0.745,0.7628
436,0.7294,0.3063,0.7166,0.8437,0.8604,0.6539,0.6417,0.6521,0.7413,0.75,0.6778,0.5764,0.6943,0.7577,0.7288,0.6181,0.7281,0.6095,0.6919,0.7284,0.5746,1.0273,0.6336,0.7052,0.6683,0.4143,0.3901658356189728,0.8332521915435791,0.2851,0.6508,0.656,0.6612,0.748,0.7472
437,0.7069,0.3441,0.6979,0.831,0.8395,0.6664,0.5827,0.6564,0.7476,0.7645,0.6788,0.5822,0.6967,0.7673,0.7259,0.6233,0.6937,0.611,0.6861,0.7366,0.5792,0.9785,0.6312,0.7047,0.6724,0.4191,0.38614600896835327,0.8358616828918457,0.2922,0.6509,0.6362,0.6586,0.7473,0.7478
438,0.7501,0.2752,0.726,0.839,0.8758,0.6811,0.5736,0.6676,0.737,0.7759,0.6917,0.543,0.6974,0.7584,0.7438,0.6311,0.6573,0.6163,0.6855,0.7515,0.5826,0.9603,0.632,0.704,0.6758,0.4231,0.3857780396938324,0.835498571395874,0.2994,0.6673,0.6019,0.6679,0.7448,0.7646
439,0.7115,0.3197,0.7049,0.8337,0.8464,0.6772,0.5791,0.6656,0.7365,0.7711,0.6742,0.6039,0.6911,0.7543,0.713,0.6283,0.6714,0.614,0.6821,0.7481,0.5917,0.9122,0.6347,0.7032,0.689,0.4252,0.3807917833328247,0.8381339907646179,0.3066,0.6566,0.6173,0.6621,0.742,0.7535
440,0.755,0.2778,0.7298,0.85,0.8773,0.678,0.5808,0.6654,0.7461,0.776,0.7101,0.4855,0.7023,0.7396,0.7834,0.6367,0.6435,0.6205,0.6815,0.7597,0.591,0.8927,0.6302,0.7058,0.6868,0.4173,0.38236716389656067,0.837936520576477,0.3137,0.6742,0.5761,0.6696,0.7446,0.7766
441,0.7044,0.3266,0.7014,0.8324,0.8399,0.6679,0.596,0.6599,0.7458,0.7638,0.6645,0.6046,0.691,0.7567,0.7054,0.6259,0.6802,0.615,0.6917,0.7417,0.574,0.9935,0.6326,0.6994,0.6669,0.4172,0.37795543670654297,0.8395265340805054,0.3208,0.6473,0.6402,0.66,0.7452,0.7435
442,0.7613,0.2748,0.7351,0.8526,0.8819,0.7036,0.5305,0.6992,0.726,0.7948,0.7016,0.5358,0.6997,0.7538,0.7609,0.6404,0.655,0.6245,0.6907,0.7608,0.585,0.9888,0.627,0.6818,0.6859,0.4205,0.3744889497756958,0.842305600643158,0.3279,0.6784,0.597,0.6771,0.741,0.7769
443,0.7621,0.2702,0.7351,0.8477,0.8827,0.6829,0.5878,0.6695,0.736,0.78,0.7072,0.5095,0.7001,0.7419,0.7694,0.6396,0.6269,0.6233,0.678,0.7711,0.603,0.8408,0.633,0.6974,0.7069,0.4166,0.3751634657382965,0.8408272862434387,0.335,0.679,0.567,0.6722,0.7402,0.782
444,0.7692,0.2654,0.7401,0.848,0.8864,0.6915,0.5504,0.6779,0.7438,0.7876,0.7079,0.4974,0.7008,0.7451,0.7741,0.6424,0.6502,0.6255,0.6877,0.7651,0.5963,0.9236,0.6355,0.7082,0.6937,0.417,0.36932146549224854,0.8445081114768982,0.3421,0.6815,0.5774,0.676,0.7466,0.7814
445,0.7353,0.2886,0.7184,0.8421,0.8647,0.6981,0.5265,0.6853,0.7412,0.7914,0.6999,0.5378,0.6968,0.7413,0.754,0.6394,0.6419,0.6229,0.6886,0.761,0.5877,0.9502,0.6294,0.6947,0.6863,0.4189,0.36887532472610474,0.8436083793640137,0.3492,0.6721,0.589,0.6706,0.7416,0.7715
446,0.7652,0.262,0.7379,0.8445,0.8866,0.6785,0.5978,0.6658,0.7392,0.7752,0.7099,0.5078,0.7036,0.7487,0.7744,0.6412,0.6605,0.6253,0.694,0.761,0.5848,0.9849,0.6323,0.6986,0.6807,0.4239,0.36766040325164795,0.844470202922821,0.3564,0.6759,0.6026,0.673,0.745,0.7756
447,0.733,0.2976,0.7147,0.8426,0.8614,0.6638,0.5954,0.6537,0.7411,0.7635,0.7113,0.4719,0.7041,0.7489,0.7933,0.6502,0.6037,0.6345,0.6814,0.7801,0.5946,0.874,0.6226,0.6802,0.6978,0.4189,0.36636170744895935,0.845318078994751,0.3635,0.6706,0.5685,0.6659,0.7388,0.7792
448,0.738,0.2922,0.719,0.8448,0.8664,0.6756,0.5864,0.6666,0.7453,0.7737,0.6942,0.5529,0.6985,0.7591,0.7512,0.6399,0.6623,0.624,0.695,0.7584,0.5895,0.9905,0.6324,0.7036,0.6872,0.4171,0.3660852015018463,0.8444622159004211,0.3705,0.6674,0.6169,0.6681,0.7496,0.7674
449,0.7514,0.2861,0.7259,0.8467,0.8741,0.6947,0.5398,0.6778,0.7517,0.7917,0.6941,0.5525,0.6988,0.7652,0.7488,0.6406,0.6627,0.6243,0.692,0.7594,0.5832,1.0457,0.6288,0.7035,0.6781,0.4212,0.36180564761161804,0.8469560146331787,0.3777,0.6728,0.6174,0.6711,0.7518,0.7704
450,0.7886,0.2378,0.7606,0.8474,0.9018,0.6927,0.5414,0.6759,0.7492,0.7921,0.7158,0.4755,0.7077,0.7443,0.7907,0.6449,0.6445,0.628,0.6846,0.7711,0.5926,0.9413,0.6303,0.7029,0.6909,0.4232,0.3614498972892761,0.84765625,0.3849,0.6869,0.5681,0.6805,0.7457,0.7893
451,0.7854,0.2538,0.7559,0.8456,0.8969,0.6872,0.569,0.6733,0.7426,0.7824,0.7136,0.4904,0.7065,0.7605,0.7765,0.6481,0.6356,0.6315,0.6906,0.7703,0.591,0.8925,0.6289,0.7019,0.6872,0.4151,0.3641543686389923,0.8458507657051086,0.3919,0.6851,0.5683,0.6792,0.7482,0.7827
452,0.7589,0.2713,0.7342,0.8503,0.8821,0.6926,0.55,0.6772,0.7478,0.791,0.6999,0.5545,0.7032,0.7658,0.7522,0.6407,0.6737,0.6255,0.6963,0.7591,0.5788,1.0243,0.6302,0.6995,0.6734,0.4276,0.3553096354007721,0.8506866693496704,0.3992,0.6742,0.6148,0.6741,0.7519,0.7716
453,0.7281,0.2982,0.7122,0.8401,0.8587,0.6845,0.5614,0.6705,0.7524,0.7828,0.7035,0.4912,0.7039,0.7636,0.7758,0.6412,0.6628,0.6247,0.6912,0.7627,0.585,0.9846,0.6281,0.7012,0.6809,0.416,0.3560679852962494,0.8511415719985962,0.4062,0.6685,0.5996,0.6679,0.7497,0.7722
